time	channel1	channel2	channel3	channel4	channel5	channel6	channel7	channel8	class
1	-3e-05	0	-1e-05	1e-05	0	-0.00013	-3e-05	-1e-05	0
4	-3e-05	0	-1e-05	1e-05	0	-0.00013	-3e-05	-1e-05	0
5	-3e-05	0	-1e-05	1e-05	0	-0.00013	-3e-05	-1e-05	0
6	-3e-05	0	-1e-05	1e-05	0	-0.00013	-3e-05	-1e-05	0
7	-3e-05	0	-1e-05	1e-05	0	-0.00013	-3e-05	-1e-05	0
8	-3e-05	0	-1e-05	1e-05	0	-0.00013	-3e-05	-1e-05	0
9	-3e-05	0	-1e-05	1e-05	0	-0.00013	-3e-05	-1e-05	0
10	-3e-05	0	-1e-05	1e-05	0	-0.00013	-3e-05	-1e-05	0
11	-3e-05	0	-1e-05	1e-05	0	-0.00013	-3e-05	-1e-05	0
12	-3e-05	0	-1e-05	1e-05	0	-0.00013	-3e-05	-1e-05	0
13	-3e-05	0	-1e-05	1e-05	0	-0.00013	-3e-05	-1e-05	0
14	-3e-05	0	-1e-05	1e-05	0	-0.00013	-3e-05	-1e-05	0
15	-1e-05	-2e-05	-5e-05	-7e-05	2e-05	0.00017	-2e-05	0	0
16	0	-2e-05	1e-05	2e-05	9e-05	3e-05	-2e-05	-3e-05	0
17	0	-2e-05	1e-05	2e-05	9e-05	3e-05	-2e-05	-3e-05	0
18	0	-2e-05	1e-05	2e-05	9e-05	3e-05	-2e-05	-3e-05	0
19	0	-2e-05	1e-05	2e-05	9e-05	3e-05	-2e-05	-3e-05	0
20	0	-2e-05	1e-05	2e-05	9e-05	3e-05	-2e-05	-3e-05	0
21	0	-2e-05	1e-05	2e-05	9e-05	3e-05	-2e-05	-3e-05	0
22	0	-2e-05	1e-05	2e-05	9e-05	3e-05	-2e-05	-3e-05	0
23	0	-2e-05	1e-05	2e-05	9e-05	3e-05	-2e-05	-3e-05	0
24	0	-2e-05	1e-05	2e-05	9e-05	3e-05	-2e-05	-3e-05	0
25	0	-2e-05	1e-05	2e-05	9e-05	3e-05	-2e-05	-3e-05	0
26	0	-2e-05	1e-05	2e-05	9e-05	3e-05	-2e-05	-3e-05	0
27	0	-2e-05	1e-05	2e-05	9e-05	3e-05	-2e-05	-3e-05	0
28	0	-2e-05	1e-05	2e-05	9e-05	3e-05	-2e-05	-3e-05	0
29	0	-2e-05	1e-05	2e-05	9e-05	3e-05	-2e-05	-3e-05	0
30	0	-2e-05	1e-05	2e-05	9e-05	3e-05	-2e-05	-3e-05	0
31	0	-2e-05	1e-05	2e-05	9e-05	3e-05	-2e-05	-3e-05	0
33	0	-2e-05	1e-05	2e-05	9e-05	3e-05	-2e-05	-3e-05	0
34	0	-2e-05	1e-05	2e-05	9e-05	3e-05	-2e-05	-3e-05	0
35	0	-2e-05	1e-05	2e-05	9e-05	3e-05	-2e-05	-3e-05	0
42	-2e-05	1e-05	2e-05	-0.00017	0.00015	-6e-05	-1e-05	1e-05	0
43	-2e-05	1e-05	2e-05	-0.00017	0.00015	-6e-05	-1e-05	1e-05	0
44	-2e-05	1e-05	2e-05	-0.00017	0.00015	-6e-05	-1e-05	1e-05	0
45	-2e-05	1e-05	2e-05	-0.00017	0.00015	-6e-05	-1e-05	1e-05	0
46	-2e-05	1e-05	2e-05	-0.00017	0.00015	-6e-05	-1e-05	1e-05	0
47	-2e-05	1e-05	2e-05	-0.00017	0.00015	-6e-05	-1e-05	1e-05	0
48	-2e-05	1e-05	2e-05	-0.00017	0.00015	-6e-05	-1e-05	1e-05	0
49	-2e-05	1e-05	2e-05	-0.00017	0.00015	-6e-05	-1e-05	1e-05	0
50	-2e-05	1e-05	2e-05	-0.00017	0.00015	-6e-05	-1e-05	1e-05	0
51	-2e-05	1e-05	2e-05	-0.00017	0.00015	-6e-05	-1e-05	1e-05	0
52	0	0	7e-05	2e-05	6e-05	5e-05	-3e-05	-2e-05	0
53	-1e-05	-2e-05	-4e-05	-1e-05	0.00023	0.00033	3e-05	-2e-05	0
54	-1e-05	-2e-05	-4e-05	-1e-05	0.00023	0.00033	3e-05	-2e-05	0
55	-1e-05	-2e-05	-4e-05	-1e-05	0.00023	0.00033	3e-05	-2e-05	0
56	-1e-05	-2e-05	-4e-05	-1e-05	0.00023	0.00033	3e-05	-2e-05	0
57	-1e-05	-2e-05	-4e-05	-1e-05	0.00023	0.00033	3e-05	-2e-05	0
58	-1e-05	-2e-05	-4e-05	-1e-05	0.00023	0.00033	3e-05	-2e-05	0
59	-1e-05	-2e-05	-4e-05	-1e-05	0.00023	0.00033	3e-05	-2e-05	0
60	-1e-05	-2e-05	-4e-05	-1e-05	0.00023	0.00033	3e-05	-2e-05	0
61	-1e-05	-2e-05	-4e-05	-1e-05	0.00023	0.00033	3e-05	-2e-05	0
62	-1e-05	-2e-05	-4e-05	-1e-05	0.00023	0.00033	3e-05	-2e-05	0
63	-1e-05	-2e-05	-4e-05	-1e-05	0.00023	0.00033	3e-05	-2e-05	0
64	-1e-05	-2e-05	-4e-05	-1e-05	0.00023	0.00033	3e-05	-2e-05	0
65	-1e-05	-2e-05	-4e-05	-1e-05	0.00023	0.00033	3e-05	-2e-05	0
66	-1e-05	-2e-05	-4e-05	-1e-05	0.00023	0.00033	3e-05	-2e-05	0
67	-1e-05	-2e-05	-4e-05	-1e-05	0.00023	0.00033	3e-05	-2e-05	0
68	-1e-05	-2e-05	-4e-05	-1e-05	0.00023	0.00033	3e-05	-2e-05	0
69	-1e-05	-2e-05	-4e-05	-1e-05	0.00023	0.00033	3e-05	-2e-05	0
70	-1e-05	-2e-05	-4e-05	-1e-05	0.00023	0.00033	3e-05	-2e-05	0
71	-1e-05	-2e-05	-4e-05	-1e-05	0.00023	0.00033	3e-05	-2e-05	0
72	-1e-05	-2e-05	-4e-05	-1e-05	0.00023	0.00033	3e-05	-2e-05	0
73	-1e-05	-2e-05	-4e-05	-1e-05	0.00023	0.00033	3e-05	-2e-05	0
74	-1e-05	-2e-05	-4e-05	-1e-05	0.00023	0.00033	3e-05	-2e-05	0
75	-1e-05	-2e-05	-3e-05	1e-05	5e-05	-3e-05	0	0	0
76	0	-4e-05	-2e-05	8e-05	-0.00017	0.00017	-4e-05	-4e-05	0
77	0	-4e-05	-2e-05	8e-05	-0.00017	0.00017	-4e-05	-4e-05	0
78	0	-4e-05	-2e-05	8e-05	-0.00017	0.00017	-4e-05	-4e-05	0
79	0	-4e-05	-2e-05	8e-05	-0.00017	0.00017	-4e-05	-4e-05	0
80	0	-4e-05	-2e-05	8e-05	-0.00017	0.00017	-4e-05	-4e-05	0
81	0	-4e-05	-2e-05	8e-05	-0.00017	0.00017	-4e-05	-4e-05	0
82	0	-4e-05	-2e-05	8e-05	-0.00017	0.00017	-4e-05	-4e-05	0
83	0	-4e-05	-2e-05	8e-05	-0.00017	0.00017	-4e-05	-4e-05	0
84	0	-4e-05	-2e-05	8e-05	-0.00017	0.00017	-4e-05	-4e-05	0
85	0	-4e-05	-2e-05	8e-05	-0.00017	0.00017	-4e-05	-4e-05	0
86	0	-4e-05	-2e-05	8e-05	-0.00017	0.00017	-4e-05	-4e-05	0
88	0	-4e-05	-2e-05	8e-05	-0.00017	0.00017	-4e-05	-4e-05	0
89	0	-4e-05	-2e-05	8e-05	-0.00017	0.00017	-4e-05	-4e-05	0
90	0	-4e-05	-2e-05	8e-05	-0.00017	0.00017	-4e-05	-4e-05	0
91	0	-4e-05	-2e-05	8e-05	-0.00017	0.00017	-4e-05	-4e-05	0
92	0	-4e-05	-2e-05	8e-05	-0.00017	0.00017	-4e-05	-4e-05	0
93	0	-4e-05	-2e-05	8e-05	-0.00017	0.00017	-4e-05	-4e-05	0
94	0	-4e-05	-2e-05	8e-05	-0.00017	0.00017	-4e-05	-4e-05	0
95	0	-4e-05	-2e-05	8e-05	-0.00017	0.00017	-4e-05	-4e-05	0
96	0	-4e-05	-2e-05	8e-05	-0.00017	0.00017	-4e-05	-4e-05	0
97	0	-4e-05	-2e-05	8e-05	-0.00017	0.00017	-4e-05	-4e-05	0
98	-3e-05	-2e-05	-6e-05	-8e-05	-7e-05	-0.00025	-1e-05	-2e-05	0
99	0	-1e-05	-1e-05	-5e-05	4e-05	-0.0002	3e-05	-1e-05	0
100	0	-1e-05	-1e-05	-5e-05	4e-05	-0.0002	3e-05	-1e-05	0
101	0	-1e-05	-1e-05	-5e-05	4e-05	-0.0002	3e-05	-1e-05	0
102	0	-1e-05	-1e-05	-5e-05	4e-05	-0.0002	3e-05	-1e-05	0
103	0	-1e-05	-1e-05	-5e-05	4e-05	-0.0002	3e-05	-1e-05	0
104	0	-1e-05	-1e-05	-5e-05	4e-05	-0.0002	3e-05	-1e-05	0
105	0	-1e-05	-1e-05	-5e-05	4e-05	-0.0002	3e-05	-1e-05	0
106	0	-1e-05	-1e-05	-5e-05	4e-05	-0.0002	3e-05	-1e-05	0
107	0	-1e-05	-1e-05	-5e-05	4e-05	-0.0002	3e-05	-1e-05	0
108	0	-1e-05	-1e-05	-5e-05	4e-05	-0.0002	3e-05	-1e-05	0
109	0	-1e-05	-1e-05	-5e-05	4e-05	-0.0002	3e-05	-1e-05	0
110	0	-1e-05	-1e-05	-5e-05	4e-05	-0.0002	3e-05	-1e-05	0
111	0	-1e-05	-1e-05	-5e-05	4e-05	-0.0002	3e-05	-1e-05	0
112	0	-1e-05	3e-05	0.0001	0.00018	0.00015	1e-05	-1e-05	0
113	-1e-05	0	-5e-05	-4e-05	-6e-05	-0.00019	-3e-05	-1e-05	0
114	-1e-05	0	-5e-05	-4e-05	-6e-05	-0.00019	-3e-05	-1e-05	0
115	-1e-05	0	-5e-05	-4e-05	-6e-05	-0.00019	-3e-05	-1e-05	0
116	-1e-05	0	-5e-05	-4e-05	-6e-05	-0.00019	-3e-05	-1e-05	0
117	-1e-05	0	-5e-05	-4e-05	-6e-05	-0.00019	-3e-05	-1e-05	0
118	-1e-05	0	-5e-05	-4e-05	-6e-05	-0.00019	-3e-05	-1e-05	0
119	-1e-05	0	-5e-05	-4e-05	-6e-05	-0.00019	-3e-05	-1e-05	0
120	-1e-05	0	-5e-05	-4e-05	-6e-05	-0.00019	-3e-05	-1e-05	0
121	-1e-05	0	-5e-05	-4e-05	-6e-05	-0.00019	-3e-05	-1e-05	0
122	-1e-05	0	-5e-05	-4e-05	-6e-05	-0.00019	-3e-05	-1e-05	0
123	-1e-05	0	-5e-05	-4e-05	-6e-05	-0.00019	-3e-05	-1e-05	0
124	-1e-05	0	-5e-05	-4e-05	-6e-05	-0.00019	-3e-05	-1e-05	0
125	-1e-05	0	-5e-05	-4e-05	-6e-05	-0.00019	-3e-05	-1e-05	0
126	-1e-05	0	-5e-05	-4e-05	-6e-05	-0.00019	-3e-05	-1e-05	0
127	-1e-05	0	-5e-05	-4e-05	-6e-05	-0.00019	-3e-05	-1e-05	0
128	-1e-05	0	-5e-05	-4e-05	-6e-05	-0.00019	-3e-05	-1e-05	0
129	-1e-05	0	-5e-05	-4e-05	-6e-05	-0.00019	-3e-05	-1e-05	0
130	-1e-05	0	-5e-05	-4e-05	-6e-05	-0.00019	-3e-05	-1e-05	0
131	-1e-05	0	-5e-05	-4e-05	-6e-05	-0.00019	-3e-05	-1e-05	0
132	-1e-05	0	-5e-05	-4e-05	-6e-05	-0.00019	-3e-05	-1e-05	0
133	-1e-05	0	-5e-05	-4e-05	-6e-05	-0.00019	-3e-05	-1e-05	0
134	-1e-05	0	-5e-05	-4e-05	-6e-05	-0.00019	-3e-05	-1e-05	0
135	-1e-05	-2e-05	-4e-05	1e-05	0.00021	-6e-05	0	-1e-05	0
136	1e-05	0	-1e-05	8e-05	0	0.00013	-1e-05	0	0
138	1e-05	0	-1e-05	8e-05	0	0.00013	-1e-05	0	0
139	1e-05	0	-1e-05	8e-05	0	0.00013	-1e-05	0	0
140	1e-05	0	-1e-05	8e-05	0	0.00013	-1e-05	0	0
141	1e-05	0	-1e-05	8e-05	0	0.00013	-1e-05	0	0
142	1e-05	0	-1e-05	8e-05	0	0.00013	-1e-05	0	0
143	1e-05	0	-1e-05	8e-05	0	0.00013	-1e-05	0	0
144	1e-05	0	-1e-05	8e-05	0	0.00013	-1e-05	0	0
145	1e-05	0	-1e-05	8e-05	0	0.00013	-1e-05	0	0
146	1e-05	0	-1e-05	8e-05	0	0.00013	-1e-05	0	0
147	1e-05	0	-1e-05	8e-05	0	0.00013	-1e-05	0	0
148	1e-05	0	-1e-05	8e-05	0	0.00013	-1e-05	0	0
149	1e-05	0	-1e-05	8e-05	0	0.00013	-1e-05	0	0
150	1e-05	0	-1e-05	8e-05	0	0.00013	-1e-05	0	0
151	1e-05	0	-1e-05	8e-05	0	0.00013	-1e-05	0	0
152	1e-05	0	-1e-05	8e-05	0	0.00013	-1e-05	0	0
153	1e-05	0	-1e-05	8e-05	0	0.00013	-1e-05	0	0
154	1e-05	0	-1e-05	8e-05	0	0.00013	-1e-05	0	0
155	1e-05	0	-1e-05	8e-05	0	0.00013	-1e-05	0	0
156	1e-05	0	-1e-05	8e-05	0	0.00013	-1e-05	0	0
157	1e-05	0	-1e-05	8e-05	0	0.00013	-1e-05	0	0
158	-3e-05	-4e-05	-6e-05	-0.00014	-2e-05	-0.00036	-6e-05	-3e-05	0
159	-3e-05	-4e-05	-6e-05	-0.00014	-2e-05	-0.00036	-6e-05	-3e-05	0
160	-3e-05	-4e-05	-6e-05	-0.00014	-2e-05	-0.00036	-6e-05	-3e-05	0
161	-3e-05	-4e-05	-6e-05	-0.00014	-2e-05	-0.00036	-6e-05	-3e-05	0
162	-3e-05	-4e-05	-6e-05	-0.00014	-2e-05	-0.00036	-6e-05	-3e-05	0
163	-3e-05	-4e-05	-6e-05	-0.00014	-2e-05	-0.00036	-6e-05	-3e-05	0
164	-3e-05	-4e-05	-6e-05	-0.00014	-2e-05	-0.00036	-6e-05	-3e-05	0
165	-3e-05	-4e-05	-6e-05	-0.00014	-2e-05	-0.00036	-6e-05	-3e-05	0
166	-3e-05	-4e-05	-6e-05	-0.00014	-2e-05	-0.00036	-6e-05	-3e-05	0
167	-3e-05	-4e-05	-6e-05	-0.00014	-2e-05	-0.00036	-6e-05	-3e-05	0
168	-3e-05	-4e-05	-6e-05	-0.00014	-2e-05	-0.00036	-6e-05	-3e-05	0
169	-3e-05	-4e-05	-6e-05	-0.00014	-2e-05	-0.00036	-6e-05	-3e-05	0
170	-3e-05	-4e-05	-6e-05	-0.00014	-2e-05	-0.00036	-6e-05	-3e-05	0
171	-3e-05	-4e-05	-6e-05	-0.00014	-2e-05	-0.00036	-6e-05	-3e-05	0
172	0	0	-3e-05	-3e-05	-0.00033	0.00028	1e-05	0	0
173	0	2e-05	-1e-05	0	-7e-05	-0.00016	-2e-05	-1e-05	0
174	0	2e-05	-1e-05	0	-7e-05	-0.00016	-2e-05	-1e-05	0
175	0	2e-05	-1e-05	0	-7e-05	-0.00016	-2e-05	-1e-05	0
176	0	2e-05	-1e-05	0	-7e-05	-0.00016	-2e-05	-1e-05	0
177	0	2e-05	-1e-05	0	-7e-05	-0.00016	-2e-05	-1e-05	0
178	0	2e-05	-1e-05	0	-7e-05	-0.00016	-2e-05	-1e-05	0
179	0	2e-05	-1e-05	0	-7e-05	-0.00016	-2e-05	-1e-05	0
180	0	2e-05	-1e-05	0	-7e-05	-0.00016	-2e-05	-1e-05	0
181	0	2e-05	-1e-05	0	-7e-05	-0.00016	-2e-05	-1e-05	0
182	0	2e-05	-1e-05	0	-7e-05	-0.00016	-2e-05	-1e-05	0
183	0	2e-05	-1e-05	0	-7e-05	-0.00016	-2e-05	-1e-05	0
184	0	2e-05	-1e-05	0	-7e-05	-0.00016	-2e-05	-1e-05	0
185	0	2e-05	-1e-05	0	-7e-05	-0.00016	-2e-05	-1e-05	0
186	0	2e-05	-1e-05	0	-7e-05	-0.00016	-2e-05	-1e-05	0
188	0	2e-05	-1e-05	0	-7e-05	-0.00016	-2e-05	-1e-05	0
189	0	2e-05	-1e-05	0	-7e-05	-0.00016	-2e-05	-1e-05	0
190	0	2e-05	-1e-05	0	-7e-05	-0.00016	-2e-05	-1e-05	0
191	0	2e-05	-1e-05	0	-7e-05	-0.00016	-2e-05	-1e-05	0
192	0	2e-05	-1e-05	0	-7e-05	-0.00016	-2e-05	-1e-05	0
193	0	2e-05	-1e-05	0	-7e-05	-0.00016	-2e-05	-1e-05	0
194	0	2e-05	-1e-05	0	-7e-05	-0.00016	-2e-05	-1e-05	0
195	-1e-05	-1e-05	4e-05	3e-05	-6e-05	-0.0001	-3e-05	-2e-05	0
196	0	-1e-05	1e-05	4e-05	6e-05	-3e-05	-1e-05	-2e-05	0
197	0	-1e-05	1e-05	4e-05	6e-05	-3e-05	-1e-05	-2e-05	0
198	0	-1e-05	1e-05	4e-05	6e-05	-3e-05	-1e-05	-2e-05	0
199	0	-1e-05	1e-05	4e-05	6e-05	-3e-05	-1e-05	-2e-05	0
200	0	-1e-05	1e-05	4e-05	6e-05	-3e-05	-1e-05	-2e-05	0
201	0	-1e-05	1e-05	4e-05	6e-05	-3e-05	-1e-05	-2e-05	0
202	0	-1e-05	1e-05	4e-05	6e-05	-3e-05	-1e-05	-2e-05	0
203	0	-1e-05	1e-05	4e-05	6e-05	-3e-05	-1e-05	-2e-05	0
204	0	-1e-05	1e-05	4e-05	6e-05	-3e-05	-1e-05	-2e-05	0
205	0	-1e-05	1e-05	4e-05	6e-05	-3e-05	-1e-05	-2e-05	0
206	0	-1e-05	1e-05	4e-05	6e-05	-3e-05	-1e-05	-2e-05	0
207	0	-1e-05	1e-05	4e-05	6e-05	-3e-05	-1e-05	-2e-05	0
208	0	-1e-05	1e-05	4e-05	6e-05	-3e-05	-1e-05	-2e-05	0
209	0	-1e-05	1e-05	4e-05	6e-05	-3e-05	-1e-05	-2e-05	0
210	0	-1e-05	1e-05	4e-05	6e-05	-3e-05	-1e-05	-2e-05	0
211	0	-1e-05	1e-05	4e-05	6e-05	-3e-05	-1e-05	-2e-05	0
212	0	-1e-05	1e-05	4e-05	6e-05	-3e-05	-1e-05	-2e-05	0
213	0	-1e-05	1e-05	4e-05	6e-05	-3e-05	-1e-05	-2e-05	0
214	0	-1e-05	1e-05	4e-05	6e-05	-3e-05	-1e-05	-2e-05	0
215	0	-1e-05	1e-05	4e-05	6e-05	-3e-05	-1e-05	-2e-05	0
216	0	-1e-05	1e-05	4e-05	6e-05	-3e-05	-1e-05	-2e-05	0
217	0	-1e-05	1e-05	4e-05	6e-05	-3e-05	-1e-05	-2e-05	0
218	-1e-05	0	0	-7e-05	2e-05	-2e-05	1e-05	1e-05	0
219	-1e-05	-3e-05	1e-05	2e-05	-0.00011	1e-05	-1e-05	0	0
220	-1e-05	-3e-05	1e-05	2e-05	-0.00011	1e-05	-1e-05	0	0
221	-1e-05	-3e-05	1e-05	2e-05	-0.00011	1e-05	-1e-05	0	0
222	-1e-05	-3e-05	1e-05	2e-05	-0.00011	1e-05	-1e-05	0	0
223	-1e-05	-3e-05	1e-05	2e-05	-0.00011	1e-05	-1e-05	0	0
224	-1e-05	-3e-05	1e-05	2e-05	-0.00011	1e-05	-1e-05	0	0
225	-1e-05	-3e-05	1e-05	2e-05	-0.00011	1e-05	-1e-05	0	0
226	-1e-05	-3e-05	1e-05	2e-05	-0.00011	1e-05	-1e-05	0	0
227	-1e-05	-3e-05	1e-05	2e-05	-0.00011	1e-05	-1e-05	0	0
228	-1e-05	-3e-05	1e-05	2e-05	-0.00011	1e-05	-1e-05	0	0
229	-1e-05	-3e-05	1e-05	2e-05	-0.00011	1e-05	-1e-05	0	0
230	-1e-05	-3e-05	1e-05	2e-05	-0.00011	1e-05	-1e-05	0	0
231	-1e-05	-3e-05	1e-05	2e-05	-0.00011	1e-05	-1e-05	0	0
232	-1e-05	-1e-05	0	-4e-05	-5e-05	-1e-05	0	1e-05	0
233	-1e-05	1e-05	-1e-05	2e-05	5e-05	0.00024	2e-05	2e-05	0
234	-1e-05	1e-05	-1e-05	2e-05	5e-05	0.00024	2e-05	2e-05	0
235	-1e-05	1e-05	-1e-05	2e-05	5e-05	0.00024	2e-05	2e-05	0
236	-1e-05	1e-05	-1e-05	2e-05	5e-05	0.00024	2e-05	2e-05	0
238	-1e-05	1e-05	-1e-05	2e-05	5e-05	0.00024	2e-05	2e-05	0
239	-1e-05	1e-05	-1e-05	2e-05	5e-05	0.00024	2e-05	2e-05	0
240	-1e-05	1e-05	-1e-05	2e-05	5e-05	0.00024	2e-05	2e-05	0
241	-1e-05	1e-05	-1e-05	2e-05	5e-05	0.00024	2e-05	2e-05	0
242	-1e-05	1e-05	-1e-05	2e-05	5e-05	0.00024	2e-05	2e-05	0
243	-1e-05	1e-05	-1e-05	2e-05	5e-05	0.00024	2e-05	2e-05	0
244	-1e-05	1e-05	-1e-05	2e-05	5e-05	0.00024	2e-05	2e-05	0
245	-1e-05	1e-05	-1e-05	2e-05	5e-05	0.00024	2e-05	2e-05	0
246	-1e-05	1e-05	-1e-05	2e-05	5e-05	0.00024	2e-05	2e-05	0
247	-1e-05	1e-05	-1e-05	2e-05	5e-05	0.00024	2e-05	2e-05	0
248	-1e-05	1e-05	-1e-05	2e-05	5e-05	0.00024	2e-05	2e-05	0
249	-1e-05	1e-05	-1e-05	2e-05	5e-05	0.00024	2e-05	2e-05	0
250	-1e-05	1e-05	-1e-05	2e-05	5e-05	0.00024	2e-05	2e-05	0
251	-1e-05	1e-05	-1e-05	2e-05	5e-05	0.00024	2e-05	2e-05	0
252	-1e-05	1e-05	-1e-05	2e-05	5e-05	0.00024	2e-05	2e-05	0
253	-1e-05	1e-05	-1e-05	2e-05	5e-05	0.00024	2e-05	2e-05	0
254	-1e-05	1e-05	-1e-05	2e-05	5e-05	0.00024	2e-05	2e-05	0
255	-2e-05	-1e-05	-3e-05	-2e-05	8e-05	-3e-05	-1e-05	-1e-05	0
256	1e-05	-2e-05	0	-1e-05	0	1e-05	0	0	0
257	1e-05	-2e-05	0	-1e-05	0	1e-05	0	0	0
258	1e-05	-2e-05	0	-1e-05	0	1e-05	0	0	0
259	1e-05	-2e-05	0	-1e-05	0	1e-05	0	0	0
260	1e-05	-2e-05	0	-1e-05	0	1e-05	0	0	0
261	1e-05	-2e-05	0	-1e-05	0	1e-05	0	0	0
262	1e-05	-2e-05	0	-1e-05	0	1e-05	0	0	0
263	1e-05	-2e-05	0	-1e-05	0	1e-05	0	0	0
264	1e-05	-2e-05	0	-1e-05	0	1e-05	0	0	0
265	1e-05	-2e-05	0	-1e-05	0	1e-05	0	0	0
266	1e-05	-2e-05	0	-1e-05	0	1e-05	0	0	0
267	1e-05	-2e-05	0	-1e-05	0	1e-05	0	0	0
268	1e-05	-2e-05	0	-1e-05	0	1e-05	0	0	0
269	1e-05	-2e-05	0	-1e-05	0	1e-05	0	0	0
270	1e-05	-2e-05	0	-1e-05	0	1e-05	0	0	0
271	1e-05	-2e-05	0	-1e-05	0	1e-05	0	0	0
272	1e-05	-2e-05	0	-1e-05	0	1e-05	0	0	0
273	1e-05	-2e-05	0	-1e-05	0	1e-05	0	0	0
274	1e-05	-2e-05	0	-1e-05	0	1e-05	0	0	0
275	1e-05	-2e-05	0	-1e-05	0	1e-05	0	0	0
276	1e-05	-2e-05	0	-1e-05	0	1e-05	0	0	0
277	1e-05	-2e-05	0	-1e-05	0	1e-05	0	0	0
278	-1e-05	0	-2e-05	2e-05	6e-05	-2e-05	-1e-05	-1e-05	0
279	-3e-05	0	1e-05	0	-7e-05	-0.00015	-5e-05	0	0
280	-3e-05	0	1e-05	0	-7e-05	-0.00015	-5e-05	0	0
281	-3e-05	0	1e-05	0	-7e-05	-0.00015	-5e-05	0	0
282	-3e-05	0	1e-05	0	-7e-05	-0.00015	-5e-05	0	0
283	-3e-05	0	1e-05	0	-7e-05	-0.00015	-5e-05	0	0
284	-3e-05	0	1e-05	0	-7e-05	-0.00015	-5e-05	0	0
285	-3e-05	0	1e-05	0	-7e-05	-0.00015	-5e-05	0	0
287	-3e-05	0	1e-05	0	-7e-05	-0.00015	-5e-05	0	0
289	-3e-05	0	1e-05	0	-7e-05	-0.00015	-5e-05	0	0
290	-3e-05	0	1e-05	0	-7e-05	-0.00015	-5e-05	0	0
291	0	-2e-05	-3e-05	3e-05	5e-05	0.00022	3e-05	1e-05	0
292	0	-1e-05	-1e-05	-1e-05	-0.0001	-0.00033	-3e-05	0	0
293	0	-1e-05	-1e-05	-1e-05	-0.0001	-0.00033	-3e-05	0	0
295	0	-1e-05	-1e-05	-1e-05	-0.0001	-0.00033	-3e-05	0	0
296	0	-1e-05	-1e-05	-1e-05	-0.0001	-0.00033	-3e-05	0	0
297	0	-1e-05	-1e-05	-1e-05	-0.0001	-0.00033	-3e-05	0	0
298	0	-1e-05	-1e-05	-1e-05	-0.0001	-0.00033	-3e-05	0	0
299	0	-1e-05	-1e-05	-1e-05	-0.0001	-0.00033	-3e-05	0	0
300	-1e-05	0	0	2e-05	-4e-05	-2e-05	0	-2e-05	0
301	-1e-05	0	0	2e-05	-4e-05	-2e-05	0	-2e-05	0
302	-1e-05	0	0	2e-05	-4e-05	-2e-05	0	-2e-05	0
303	-1e-05	0	0	2e-05	-4e-05	-2e-05	0	-2e-05	0
304	-1e-05	0	0	2e-05	-4e-05	-2e-05	0	-2e-05	0
305	-1e-05	0	0	2e-05	-4e-05	-2e-05	0	-2e-05	0
306	-1e-05	0	0	2e-05	-4e-05	-2e-05	0	-2e-05	0
307	-1e-05	0	0	2e-05	-4e-05	-2e-05	0	-2e-05	0
308	-1e-05	0	0	2e-05	-4e-05	-2e-05	0	-2e-05	0
309	-1e-05	0	0	2e-05	-4e-05	-2e-05	0	-2e-05	0
310	-1e-05	0	0	2e-05	-4e-05	-2e-05	0	-2e-05	0
312	-1e-05	0	0	2e-05	-4e-05	-2e-05	0	-2e-05	0
313	-1e-05	0	0	2e-05	-4e-05	-2e-05	0	-2e-05	0
314	-1e-05	0	0	2e-05	-4e-05	-2e-05	0	-2e-05	0
315	-1e-05	1e-05	2e-05	0.00022	-7e-05	0.00012	-2e-05	-3e-05	0
316	-1e-05	-1e-05	0	0.00011	9e-05	-0.00035	-2e-05	-1e-05	0
317	-1e-05	-1e-05	0	0.00011	9e-05	-0.00035	-2e-05	-1e-05	0
318	-1e-05	-1e-05	0	0.00011	9e-05	-0.00035	-2e-05	-1e-05	0
319	-1e-05	-1e-05	0	0.00011	9e-05	-0.00035	-2e-05	-1e-05	0
320	-1e-05	-1e-05	0	0.00011	9e-05	-0.00035	-2e-05	-1e-05	0
321	-1e-05	-1e-05	0	0.00011	9e-05	-0.00035	-2e-05	-1e-05	0
322	-1e-05	-1e-05	0	0.00011	9e-05	-0.00035	-2e-05	-1e-05	0
323	-1e-05	-1e-05	0	0.00011	9e-05	-0.00035	-2e-05	-1e-05	0
324	-1e-05	-1e-05	0	0.00011	9e-05	-0.00035	-2e-05	-1e-05	0
325	-1e-05	-1e-05	0	0.00011	9e-05	-0.00035	-2e-05	-1e-05	0
326	-1e-05	-1e-05	0	0.00011	9e-05	-0.00035	-2e-05	-1e-05	0
328	-1e-05	-1e-05	0	0.00011	9e-05	-0.00035	-2e-05	-1e-05	0
329	-1e-05	-1e-05	0	0.00011	9e-05	-0.00035	-2e-05	-1e-05	0
330	-1e-05	-1e-05	0	0.00011	9e-05	-0.00035	-2e-05	-1e-05	0
331	-1e-05	-1e-05	0	0.00011	9e-05	-0.00035	-2e-05	-1e-05	0
332	-1e-05	-1e-05	0	0.00011	9e-05	-0.00035	-2e-05	-1e-05	0
333	-1e-05	-1e-05	0	0.00011	9e-05	-0.00035	-2e-05	-1e-05	0
334	-1e-05	-1e-05	0	0.00011	9e-05	-0.00035	-2e-05	-1e-05	0
336	-1e-05	-1e-05	0	0.00011	9e-05	-0.00035	-2e-05	-1e-05	0
337	-1e-05	-1e-05	0	0.00011	9e-05	-0.00035	-2e-05	-1e-05	0
338	1e-05	1e-05	2e-05	-2e-05	-5e-05	0.00026	1e-05	0	0
339	1e-05	1e-05	2e-05	-2e-05	-5e-05	0.00026	1e-05	0	0
340	1e-05	1e-05	2e-05	-2e-05	-5e-05	0.00026	1e-05	0	0
341	1e-05	1e-05	2e-05	-2e-05	-5e-05	0.00026	1e-05	0	0
342	1e-05	1e-05	2e-05	-2e-05	-5e-05	0.00026	1e-05	0	0
343	1e-05	1e-05	2e-05	-2e-05	-5e-05	0.00026	1e-05	0	0
344	1e-05	1e-05	2e-05	-2e-05	-5e-05	0.00026	1e-05	0	0
345	1e-05	1e-05	2e-05	-2e-05	-5e-05	0.00026	1e-05	0	0
346	1e-05	1e-05	2e-05	-2e-05	-5e-05	0.00026	1e-05	0	0
347	1e-05	1e-05	2e-05	-2e-05	-5e-05	0.00026	1e-05	0	0
348	1e-05	1e-05	2e-05	-2e-05	-5e-05	0.00026	1e-05	0	0
349	1e-05	1e-05	2e-05	-2e-05	-5e-05	0.00026	1e-05	0	0
350	1e-05	1e-05	2e-05	-2e-05	-5e-05	0.00026	1e-05	0	0
352	1e-05	1e-05	2e-05	-2e-05	-5e-05	0.00026	1e-05	0	0
353	1e-05	1e-05	2e-05	-2e-05	-5e-05	0.00026	1e-05	0	0
354	1e-05	1e-05	2e-05	-2e-05	-5e-05	0.00026	1e-05	0	0
355	1e-05	1e-05	2e-05	-2e-05	-5e-05	0.00026	1e-05	0	0
356	1e-05	1e-05	2e-05	-2e-05	-5e-05	0.00026	1e-05	0	0
357	1e-05	1e-05	2e-05	-2e-05	-5e-05	0.00026	1e-05	0	0
358	1e-05	1e-05	2e-05	-2e-05	-5e-05	0.00026	1e-05	0	0
359	1e-05	1e-05	2e-05	-2e-05	-5e-05	0.00026	1e-05	0	0
360	1e-05	-2e-05	0	-1e-05	0	-3e-05	-1e-05	-1e-05	0
361	-2e-05	-2e-05	-2e-05	-5e-05	2e-05	-4e-05	0	-1e-05	0
362	-2e-05	-2e-05	-2e-05	-5e-05	2e-05	-4e-05	0	-1e-05	0
363	-2e-05	-2e-05	-2e-05	-5e-05	2e-05	-4e-05	0	-1e-05	0
364	-2e-05	-2e-05	-2e-05	-5e-05	2e-05	-4e-05	0	-1e-05	0
365	-2e-05	-2e-05	-2e-05	-5e-05	2e-05	-4e-05	0	-1e-05	0
366	-2e-05	-2e-05	-2e-05	-5e-05	2e-05	-4e-05	0	-1e-05	0
367	-2e-05	-2e-05	-2e-05	-5e-05	2e-05	-4e-05	0	-1e-05	0
368	-2e-05	-2e-05	-2e-05	-5e-05	2e-05	-4e-05	0	-1e-05	0
369	-2e-05	-2e-05	-2e-05	-5e-05	2e-05	-4e-05	0	-1e-05	0
370	-2e-05	-2e-05	-2e-05	-5e-05	2e-05	-4e-05	0	-1e-05	0
371	-2e-05	-2e-05	-2e-05	-5e-05	2e-05	-4e-05	0	-1e-05	0
372	-2e-05	-2e-05	-2e-05	-5e-05	2e-05	-4e-05	0	-1e-05	0
373	-2e-05	-2e-05	-2e-05	-5e-05	2e-05	-4e-05	0	-1e-05	0
374	-2e-05	-2e-05	-2e-05	-5e-05	2e-05	-4e-05	0	-1e-05	0
375	0	-3e-05	-4e-05	-7e-05	-6e-05	-0.00012	0	-1e-05	0
376	0	-1e-05	-3e-05	-3e-05	-2e-05	9e-05	0	-1e-05	0
377	0	-1e-05	-3e-05	-3e-05	-2e-05	9e-05	0	-1e-05	0
378	0	-1e-05	-3e-05	-3e-05	-2e-05	9e-05	0	-1e-05	0
379	0	-1e-05	-3e-05	-3e-05	-2e-05	9e-05	0	-1e-05	0
380	0	-1e-05	-3e-05	-3e-05	-2e-05	9e-05	0	-1e-05	0
381	0	-1e-05	-3e-05	-3e-05	-2e-05	9e-05	0	-1e-05	0
382	0	-1e-05	-3e-05	-3e-05	-2e-05	9e-05	0	-1e-05	0
383	0	-1e-05	-3e-05	-3e-05	-2e-05	9e-05	0	-1e-05	0
384	0	-1e-05	-3e-05	-3e-05	-2e-05	9e-05	0	-1e-05	0
385	0	-1e-05	-3e-05	-3e-05	-2e-05	9e-05	0	-1e-05	0
386	0	-1e-05	-3e-05	-3e-05	-2e-05	9e-05	0	-1e-05	0
388	0	-1e-05	-3e-05	-3e-05	-2e-05	9e-05	0	-1e-05	0
389	0	-1e-05	-3e-05	-3e-05	-2e-05	9e-05	0	-1e-05	0
390	0	-1e-05	-3e-05	-3e-05	-2e-05	9e-05	0	-1e-05	0
391	0	-1e-05	-3e-05	-3e-05	-2e-05	9e-05	0	-1e-05	0
392	0	-1e-05	-3e-05	-3e-05	-2e-05	9e-05	0	-1e-05	0
393	0	-1e-05	-3e-05	-3e-05	-2e-05	9e-05	0	-1e-05	0
394	0	-1e-05	-3e-05	-3e-05	-2e-05	9e-05	0	-1e-05	0
395	0	-1e-05	-3e-05	-3e-05	-2e-05	9e-05	0	-1e-05	0
396	0	-1e-05	-3e-05	-3e-05	-2e-05	9e-05	0	-1e-05	0
397	0	-1e-05	-3e-05	-3e-05	-2e-05	9e-05	0	-1e-05	0
398	-4e-05	-1e-05	-1e-05	-4e-05	-1e-05	0	-1e-05	-1e-05	0
399	-2e-05	-1e-05	1e-05	1e-05	-2e-05	-0.00015	-4e-05	-1e-05	0
400	-2e-05	-1e-05	1e-05	1e-05	-2e-05	-0.00015	-4e-05	-1e-05	0
401	-2e-05	-1e-05	1e-05	1e-05	-2e-05	-0.00015	-4e-05	-1e-05	0
402	-2e-05	-1e-05	1e-05	1e-05	-2e-05	-0.00015	-4e-05	-1e-05	0
403	-2e-05	-1e-05	1e-05	1e-05	-2e-05	-0.00015	-4e-05	-1e-05	0
404	-2e-05	-1e-05	1e-05	1e-05	-2e-05	-0.00015	-4e-05	-1e-05	0
405	-2e-05	-1e-05	1e-05	1e-05	-2e-05	-0.00015	-4e-05	-1e-05	0
406	-2e-05	-1e-05	1e-05	1e-05	-2e-05	-0.00015	-4e-05	-1e-05	0
407	-2e-05	-1e-05	1e-05	1e-05	-2e-05	-0.00015	-4e-05	-1e-05	0
408	-2e-05	-1e-05	1e-05	1e-05	-2e-05	-0.00015	-4e-05	-1e-05	0
409	-2e-05	-1e-05	1e-05	1e-05	-2e-05	-0.00015	-4e-05	-1e-05	0
410	-2e-05	-1e-05	1e-05	1e-05	-2e-05	-0.00015	-4e-05	-1e-05	0
411	-1e-05	-1e-05	-3e-05	-5e-05	3e-05	7e-05	-1e-05	0	0
412	-1e-05	-1e-05	-3e-05	-5e-05	3e-05	7e-05	-1e-05	0	0
413	-1e-05	-1e-05	-3e-05	-5e-05	3e-05	7e-05	-1e-05	0	0
414	-1e-05	-1e-05	-3e-05	-5e-05	3e-05	7e-05	-1e-05	0	0
415	-1e-05	-1e-05	-3e-05	-5e-05	3e-05	7e-05	-1e-05	0	0
416	-1e-05	-1e-05	-3e-05	-5e-05	3e-05	7e-05	-1e-05	0	0
417	-1e-05	-1e-05	-3e-05	-5e-05	3e-05	7e-05	-1e-05	0	0
418	-1e-05	-1e-05	-3e-05	-5e-05	3e-05	7e-05	-1e-05	0	0
419	-1e-05	-1e-05	-3e-05	-5e-05	3e-05	7e-05	-1e-05	0	0
420	1e-05	0	-2e-05	0	7e-05	8e-05	2e-05	1e-05	0
421	1e-05	0	-2e-05	0	7e-05	8e-05	2e-05	1e-05	0
422	1e-05	0	-2e-05	0	7e-05	8e-05	2e-05	1e-05	0
423	1e-05	0	-2e-05	0	7e-05	8e-05	2e-05	1e-05	0
424	1e-05	0	-2e-05	0	7e-05	8e-05	2e-05	1e-05	0
425	1e-05	0	-2e-05	0	7e-05	8e-05	2e-05	1e-05	0
426	1e-05	0	-2e-05	0	7e-05	8e-05	2e-05	1e-05	0
427	1e-05	0	-2e-05	0	7e-05	8e-05	2e-05	1e-05	0
428	1e-05	0	-2e-05	0	7e-05	8e-05	2e-05	1e-05	0
429	1e-05	0	-2e-05	0	7e-05	8e-05	2e-05	1e-05	0
430	1e-05	0	-2e-05	0	7e-05	8e-05	2e-05	1e-05	0
431	1e-05	0	-2e-05	0	7e-05	8e-05	2e-05	1e-05	0
432	1e-05	0	-2e-05	0	7e-05	8e-05	2e-05	1e-05	0
433	1e-05	0	-2e-05	0	7e-05	8e-05	2e-05	1e-05	0
434	1e-05	0	-2e-05	0	7e-05	8e-05	2e-05	1e-05	0
435	-2e-05	0	-1e-05	-3e-05	-7e-05	-0.00038	-4e-05	0	0
436	-3e-05	-1e-05	-2e-05	-2e-05	-9e-05	-0.00014	-2e-05	-2e-05	0
438	-3e-05	-1e-05	-2e-05	-2e-05	-9e-05	-0.00014	-2e-05	-2e-05	0
439	-3e-05	-1e-05	-2e-05	-2e-05	-9e-05	-0.00014	-2e-05	-2e-05	0
440	-3e-05	-1e-05	-2e-05	-2e-05	-9e-05	-0.00014	-2e-05	-2e-05	0
441	-3e-05	-1e-05	-2e-05	-2e-05	-9e-05	-0.00014	-2e-05	-2e-05	0
442	-3e-05	-1e-05	-2e-05	-2e-05	-9e-05	-0.00014	-2e-05	-2e-05	0
443	-3e-05	-1e-05	-2e-05	-2e-05	-9e-05	-0.00014	-2e-05	-2e-05	0
444	-3e-05	-1e-05	-2e-05	-2e-05	-9e-05	-0.00014	-2e-05	-2e-05	0
445	-3e-05	-1e-05	-2e-05	-2e-05	-9e-05	-0.00014	-2e-05	-2e-05	0
446	-3e-05	-1e-05	-2e-05	-2e-05	-9e-05	-0.00014	-2e-05	-2e-05	0
447	-3e-05	-1e-05	-2e-05	-2e-05	-9e-05	-0.00014	-2e-05	-2e-05	0
448	-3e-05	-1e-05	-2e-05	-2e-05	-9e-05	-0.00014	-2e-05	-2e-05	0
449	-3e-05	-1e-05	-2e-05	-2e-05	-9e-05	-0.00014	-2e-05	-2e-05	0
450	-3e-05	-1e-05	-2e-05	-2e-05	-9e-05	-0.00014	-2e-05	-2e-05	0
451	-3e-05	-1e-05	-2e-05	-2e-05	-9e-05	-0.00014	-2e-05	-2e-05	0
452	-3e-05	-1e-05	-2e-05	-2e-05	-9e-05	-0.00014	-2e-05	-2e-05	0
453	-3e-05	-1e-05	-2e-05	-2e-05	-9e-05	-0.00014	-2e-05	-2e-05	0
454	-3e-05	-1e-05	-2e-05	-2e-05	-9e-05	-0.00014	-2e-05	-2e-05	0
455	-3e-05	-1e-05	-2e-05	-2e-05	-9e-05	-0.00014	-2e-05	-2e-05	0
456	-3e-05	-1e-05	-2e-05	-2e-05	-9e-05	-0.00014	-2e-05	-2e-05	0
457	-3e-05	-1e-05	-2e-05	-2e-05	-9e-05	-0.00014	-2e-05	-2e-05	0
458	-1e-05	-1e-05	-1e-05	-2e-05	-1e-05	0	-1e-05	-1e-05	0
459	0	0	-2e-05	-2e-05	0	1e-05	0	0	0
460	0	0	-2e-05	-2e-05	0	1e-05	0	0	0
461	0	0	-2e-05	-2e-05	0	1e-05	0	0	0
462	0	0	-2e-05	-2e-05	0	1e-05	0	0	0
463	0	0	-2e-05	-2e-05	0	1e-05	0	0	0
464	0	0	-2e-05	-2e-05	0	1e-05	0	0	0
465	0	0	-2e-05	-2e-05	0	1e-05	0	0	0
466	0	0	-2e-05	-2e-05	0	1e-05	0	0	0
467	0	0	-2e-05	-2e-05	0	1e-05	0	0	0
468	0	0	-2e-05	-2e-05	0	1e-05	0	0	0
469	0	0	-2e-05	-2e-05	0	1e-05	0	0	0
470	0	0	-2e-05	-2e-05	0	1e-05	0	0	0
471	0	0	0	0	-2e-05	-6e-05	-1e-05	1e-05	0
472	1e-05	0	-1e-05	-2e-05	-4e-05	-1e-05	-2e-05	-2e-05	0
473	1e-05	0	-1e-05	-2e-05	-4e-05	-1e-05	-2e-05	-2e-05	0
474	1e-05	0	-1e-05	-2e-05	-4e-05	-1e-05	-2e-05	-2e-05	0
475	1e-05	0	-1e-05	-2e-05	-4e-05	-1e-05	-2e-05	-2e-05	0
476	1e-05	0	-1e-05	-2e-05	-4e-05	-1e-05	-2e-05	-2e-05	0
477	1e-05	0	-1e-05	-2e-05	-4e-05	-1e-05	-2e-05	-2e-05	0
478	1e-05	0	-1e-05	-2e-05	-4e-05	-1e-05	-2e-05	-2e-05	0
479	1e-05	0	-1e-05	-2e-05	-4e-05	-1e-05	-2e-05	-2e-05	0
480	-1e-05	-2e-05	-2e-05	-2e-05	1e-05	9e-05	-1e-05	0	0
481	-1e-05	-2e-05	-2e-05	-2e-05	1e-05	9e-05	-1e-05	0	0
482	-1e-05	-2e-05	-2e-05	-2e-05	1e-05	9e-05	-1e-05	0	0
483	-1e-05	-2e-05	-2e-05	-2e-05	1e-05	9e-05	-1e-05	0	0
484	-1e-05	-2e-05	-2e-05	-2e-05	1e-05	9e-05	-1e-05	0	0
485	-1e-05	-2e-05	-2e-05	-2e-05	1e-05	9e-05	-1e-05	0	0
486	-1e-05	-2e-05	-2e-05	-2e-05	1e-05	9e-05	-1e-05	0	0
488	-1e-05	-2e-05	-2e-05	-2e-05	1e-05	9e-05	-1e-05	0	0
489	-1e-05	-2e-05	-2e-05	-2e-05	1e-05	9e-05	-1e-05	0	0
490	-1e-05	-2e-05	-2e-05	-2e-05	1e-05	9e-05	-1e-05	0	0
491	-1e-05	-2e-05	-2e-05	-2e-05	1e-05	9e-05	-1e-05	0	0
492	-1e-05	-2e-05	-2e-05	-2e-05	1e-05	9e-05	-1e-05	0	0
493	-1e-05	-2e-05	-2e-05	-2e-05	1e-05	9e-05	-1e-05	0	0
494	-1e-05	-2e-05	-2e-05	-2e-05	1e-05	9e-05	-1e-05	0	0
495	0	1e-05	-2e-05	-3e-05	0	0.00011	0	0	0
496	0	1e-05	-2e-05	-3e-05	0	0.00011	0	0	0
497	-1e-05	-1e-05	-1e-05	-1e-05	1e-05	0	1e-05	-3e-05	0
498	-1e-05	-1e-05	-1e-05	-1e-05	1e-05	0	1e-05	-3e-05	0
499	-1e-05	-1e-05	-1e-05	-1e-05	1e-05	0	1e-05	-3e-05	0
500	-1e-05	-1e-05	-1e-05	-1e-05	1e-05	0	1e-05	-3e-05	0
501	-1e-05	-1e-05	-1e-05	-1e-05	1e-05	0	1e-05	-3e-05	0
502	-1e-05	-1e-05	-1e-05	-1e-05	1e-05	0	1e-05	-3e-05	0
503	-1e-05	-1e-05	-1e-05	-1e-05	1e-05	0	1e-05	-3e-05	0
504	-1e-05	-1e-05	-1e-05	-1e-05	1e-05	0	1e-05	-3e-05	0
505	-1e-05	-1e-05	-1e-05	-1e-05	1e-05	0	1e-05	-3e-05	0
506	-1e-05	-1e-05	-1e-05	-1e-05	1e-05	0	1e-05	-3e-05	0
507	-1e-05	-1e-05	-1e-05	-1e-05	1e-05	0	1e-05	-3e-05	0
508	-1e-05	-1e-05	-1e-05	-1e-05	1e-05	0	1e-05	-3e-05	0
509	-1e-05	-1e-05	-1e-05	-1e-05	1e-05	0	1e-05	-3e-05	0
510	-1e-05	-1e-05	-1e-05	-1e-05	1e-05	0	1e-05	-3e-05	0
511	-1e-05	-1e-05	-1e-05	-1e-05	1e-05	0	1e-05	-3e-05	0
512	-1e-05	-1e-05	-1e-05	-1e-05	1e-05	0	1e-05	-3e-05	0
513	-1e-05	-1e-05	-1e-05	-1e-05	1e-05	0	1e-05	-3e-05	0
514	-1e-05	-1e-05	-1e-05	-1e-05	1e-05	0	1e-05	-3e-05	0
515	-1e-05	-1e-05	-1e-05	-1e-05	1e-05	0	1e-05	-3e-05	0
516	-1e-05	-1e-05	-1e-05	-1e-05	1e-05	0	1e-05	-3e-05	0
517	-1e-05	-1e-05	-1e-05	-1e-05	1e-05	0	1e-05	-3e-05	0
518	-1e-05	-2e-05	-1e-05	-3e-05	-1e-05	5e-05	-2e-05	0	0
519	-2e-05	-1e-05	-1e-05	-1e-05	1e-05	7e-05	-1e-05	2e-05	0
520	-2e-05	-1e-05	-1e-05	-1e-05	1e-05	7e-05	-1e-05	2e-05	0
521	-2e-05	-1e-05	-1e-05	-1e-05	1e-05	7e-05	-1e-05	2e-05	0
522	-2e-05	-1e-05	-1e-05	-1e-05	1e-05	7e-05	-1e-05	2e-05	0
523	-2e-05	-1e-05	-1e-05	-1e-05	1e-05	7e-05	-1e-05	2e-05	0
524	-2e-05	-1e-05	-1e-05	-1e-05	1e-05	7e-05	-1e-05	2e-05	0
525	-2e-05	-1e-05	-1e-05	-1e-05	1e-05	7e-05	-1e-05	2e-05	0
526	-2e-05	-1e-05	-1e-05	-1e-05	1e-05	7e-05	-1e-05	2e-05	0
528	-2e-05	-1e-05	-1e-05	-1e-05	1e-05	7e-05	-1e-05	2e-05	0
529	-2e-05	-1e-05	-1e-05	-1e-05	1e-05	7e-05	-1e-05	2e-05	0
530	-2e-05	-1e-05	-1e-05	-1e-05	1e-05	7e-05	-1e-05	2e-05	0
531	0	-1e-05	0	1e-05	2e-05	0.00015	0	-2e-05	0
532	0	-1e-05	0	1e-05	2e-05	0.00015	0	-2e-05	0
533	0	-1e-05	0	1e-05	2e-05	0.00015	0	-2e-05	0
534	0	-1e-05	0	1e-05	2e-05	0.00015	0	-2e-05	0
535	0	-1e-05	0	1e-05	2e-05	0.00015	0	-2e-05	0
536	0	-1e-05	0	1e-05	2e-05	0.00015	0	-2e-05	0
538	0	-1e-05	0	1e-05	2e-05	0.00015	0	-2e-05	0
539	0	-1e-05	0	1e-05	2e-05	0.00015	0	-2e-05	0
540	0	-1e-05	-4e-05	-2e-05	-1e-05	8e-05	-1e-05	-2e-05	0
541	0	-1e-05	-4e-05	-2e-05	-1e-05	8e-05	-1e-05	-2e-05	0
542	0	-1e-05	-4e-05	-2e-05	-1e-05	8e-05	-1e-05	-2e-05	0
543	0	-1e-05	-4e-05	-2e-05	-1e-05	8e-05	-1e-05	-2e-05	0
544	0	-1e-05	-4e-05	-2e-05	-1e-05	8e-05	-1e-05	-2e-05	0
545	0	-1e-05	-4e-05	-2e-05	-1e-05	8e-05	-1e-05	-2e-05	0
546	0	-1e-05	-4e-05	-2e-05	-1e-05	8e-05	-1e-05	-2e-05	0
547	0	-1e-05	-4e-05	-2e-05	-1e-05	8e-05	-1e-05	-2e-05	0
548	0	-1e-05	-4e-05	-2e-05	-1e-05	8e-05	-1e-05	-2e-05	0
549	0	-1e-05	-4e-05	-2e-05	-1e-05	8e-05	-1e-05	-2e-05	0
550	0	-1e-05	-4e-05	-2e-05	-1e-05	8e-05	-1e-05	-2e-05	0
551	0	-1e-05	-4e-05	-2e-05	-1e-05	8e-05	-1e-05	-2e-05	0
552	0	-1e-05	-4e-05	-2e-05	-1e-05	8e-05	-1e-05	-2e-05	0
553	0	-1e-05	-4e-05	-2e-05	-1e-05	8e-05	-1e-05	-2e-05	0
554	-3e-05	-2e-05	-1e-05	-1e-05	0	-2e-05	-1e-05	0	0
555	-3e-05	-2e-05	-1e-05	-1e-05	0	-2e-05	-1e-05	0	0
556	-3e-05	-2e-05	-1e-05	-1e-05	0	-2e-05	-1e-05	0	0
557	-3e-05	-2e-05	-1e-05	-1e-05	0	-2e-05	-1e-05	0	0
558	-3e-05	-2e-05	-1e-05	-1e-05	0	-2e-05	-1e-05	0	0
559	-3e-05	-2e-05	-1e-05	-1e-05	0	-2e-05	-1e-05	0	0
560	-3e-05	-2e-05	-1e-05	-1e-05	0	-2e-05	-1e-05	0	0
561	-3e-05	-2e-05	-1e-05	-1e-05	0	-2e-05	-1e-05	0	0
562	-3e-05	-2e-05	-1e-05	-1e-05	0	-2e-05	-1e-05	0	0
563	0	0	-1e-05	0	-2e-05	5e-05	0	-3e-05	0
564	-2e-05	0	0	0	-1e-05	-6e-05	-1e-05	-1e-05	0
565	-2e-05	0	0	0	-1e-05	-6e-05	-1e-05	-1e-05	0
566	-2e-05	0	0	0	-1e-05	-6e-05	-1e-05	-1e-05	0
567	-2e-05	0	0	0	-1e-05	-6e-05	-1e-05	-1e-05	0
568	-2e-05	0	0	0	-1e-05	-6e-05	-1e-05	-1e-05	0
569	-2e-05	0	0	0	-1e-05	-6e-05	-1e-05	-1e-05	0
570	-2e-05	0	0	0	-1e-05	-6e-05	-1e-05	-1e-05	0
571	-2e-05	0	0	0	-1e-05	-6e-05	-1e-05	-1e-05	0
572	-2e-05	0	0	0	-1e-05	-6e-05	-1e-05	-1e-05	0
573	-2e-05	0	0	0	-1e-05	-6e-05	-1e-05	-1e-05	0
574	-2e-05	0	0	0	-1e-05	-6e-05	-1e-05	-1e-05	0
575	-2e-05	0	0	0	-1e-05	-6e-05	-1e-05	-1e-05	0
576	-2e-05	0	0	0	-1e-05	-6e-05	-1e-05	-1e-05	0
577	-2e-05	0	0	0	-1e-05	-6e-05	-1e-05	-1e-05	0
578	-2e-05	0	0	0	-1e-05	-6e-05	-1e-05	-1e-05	0
579	-2e-05	0	0	0	-1e-05	-6e-05	-1e-05	-1e-05	0
580	-2e-05	0	0	0	-1e-05	-6e-05	-1e-05	-1e-05	0
581	-2e-05	0	0	0	-1e-05	-6e-05	-1e-05	-1e-05	0
582	-2e-05	0	0	0	-1e-05	-6e-05	-1e-05	-1e-05	0
583	-2e-05	0	0	0	-1e-05	-6e-05	-1e-05	-1e-05	0
584	-2e-05	0	0	0	-1e-05	-6e-05	-1e-05	-1e-05	0
585	-2e-05	0	-1e-05	-3e-05	-1e-05	0	1e-05	-1e-05	0
586	-2e-05	0	-1e-05	-3e-05	-1e-05	0	1e-05	-1e-05	0
588	0	-1e-05	0	-2e-05	2e-05	-2e-05	-1e-05	-1e-05	0
589	0	-1e-05	0	-2e-05	2e-05	-2e-05	-1e-05	-1e-05	0
590	0	-1e-05	0	-2e-05	2e-05	-2e-05	-1e-05	-1e-05	0
591	0	0	-2e-05	1e-05	-1e-05	3e-05	-3e-05	-2e-05	0
592	0	0	-2e-05	1e-05	-1e-05	3e-05	-3e-05	-2e-05	0
593	0	0	-2e-05	1e-05	-1e-05	3e-05	-3e-05	-2e-05	0
594	0	0	-2e-05	1e-05	-1e-05	3e-05	-3e-05	-2e-05	0
595	0	0	-2e-05	1e-05	-1e-05	3e-05	-3e-05	-2e-05	0
596	0	0	-2e-05	1e-05	-1e-05	3e-05	-3e-05	-2e-05	0
597	0	0	-2e-05	1e-05	-1e-05	3e-05	-3e-05	-2e-05	0
598	0	0	-2e-05	1e-05	-1e-05	3e-05	-3e-05	-2e-05	0
599	0	0	-2e-05	1e-05	-1e-05	3e-05	-3e-05	-2e-05	0
600	-1e-05	2e-05	-1e-05	0	-5e-05	-6e-05	-1e-05	-1e-05	0
601	-1e-05	2e-05	-1e-05	0	-5e-05	-6e-05	-1e-05	-1e-05	0
602	-1e-05	2e-05	-1e-05	0	-5e-05	-6e-05	-1e-05	-1e-05	0
603	-1e-05	2e-05	-1e-05	0	-5e-05	-6e-05	-1e-05	-1e-05	0
605	-1e-05	2e-05	-1e-05	0	-5e-05	-6e-05	-1e-05	-1e-05	0
606	-1e-05	2e-05	-1e-05	0	-5e-05	-6e-05	-1e-05	-1e-05	0
607	-1e-05	2e-05	-1e-05	0	-5e-05	-6e-05	-1e-05	-1e-05	0
608	-1e-05	2e-05	-1e-05	0	-5e-05	-6e-05	-1e-05	-1e-05	0
609	-1e-05	2e-05	-1e-05	0	-5e-05	-6e-05	-1e-05	-1e-05	0
610	-1e-05	2e-05	-1e-05	0	-5e-05	-6e-05	-1e-05	-1e-05	0
611	-1e-05	2e-05	-1e-05	0	-5e-05	-6e-05	-1e-05	-1e-05	0
612	-1e-05	2e-05	-1e-05	0	-5e-05	-6e-05	-1e-05	-1e-05	0
613	-1e-05	2e-05	-1e-05	0	-5e-05	-6e-05	-1e-05	-1e-05	0
614	-2e-05	-2e-05	-1e-05	-2e-05	-3e-05	-5e-05	-2e-05	-1e-05	0
615	-2e-05	-2e-05	-1e-05	-2e-05	-3e-05	-5e-05	-2e-05	-1e-05	0
616	-2e-05	-2e-05	-1e-05	-2e-05	-3e-05	-5e-05	-2e-05	-1e-05	0
617	-2e-05	-2e-05	-1e-05	-2e-05	-3e-05	-5e-05	-2e-05	-1e-05	0
618	-2e-05	-2e-05	-1e-05	-2e-05	-3e-05	-5e-05	-2e-05	-1e-05	0
619	-2e-05	-2e-05	-1e-05	-2e-05	-3e-05	-5e-05	-2e-05	-1e-05	0
620	-2e-05	-2e-05	-1e-05	-2e-05	-3e-05	-5e-05	-2e-05	-1e-05	0
621	-2e-05	-2e-05	-1e-05	-2e-05	-3e-05	-5e-05	-2e-05	-1e-05	0
622	-2e-05	-2e-05	-1e-05	-2e-05	-3e-05	-5e-05	-2e-05	-1e-05	0
623	0	-2e-05	0	0	4e-05	9e-05	0	2e-05	0
624	0	-2e-05	0	0	4e-05	9e-05	0	2e-05	0
625	0	-2e-05	0	0	4e-05	9e-05	0	2e-05	0
626	0	-2e-05	0	0	4e-05	9e-05	0	2e-05	0
627	0	-2e-05	0	0	4e-05	9e-05	0	2e-05	0
628	0	-2e-05	0	0	4e-05	9e-05	0	2e-05	0
629	0	-2e-05	0	0	4e-05	9e-05	0	2e-05	0
630	0	-2e-05	0	0	4e-05	9e-05	0	2e-05	0
631	0	-2e-05	0	0	4e-05	9e-05	0	2e-05	0
632	0	-2e-05	0	0	4e-05	9e-05	0	2e-05	0
633	0	-2e-05	0	0	4e-05	9e-05	0	2e-05	0
634	0	-2e-05	0	0	4e-05	9e-05	0	2e-05	0
635	0	-2e-05	0	0	4e-05	9e-05	0	2e-05	0
636	0	-2e-05	0	0	4e-05	9e-05	0	2e-05	0
639	2e-05	-1e-05	-4e-05	-2e-05	-2e-05	4e-05	-2e-05	0	0
640	2e-05	-1e-05	-4e-05	-2e-05	-2e-05	4e-05	-2e-05	0	0
641	2e-05	-1e-05	-4e-05	-2e-05	-2e-05	4e-05	-2e-05	0	0
642	2e-05	-1e-05	-4e-05	-2e-05	-2e-05	4e-05	-2e-05	0	0
643	2e-05	-1e-05	-4e-05	-2e-05	-2e-05	4e-05	-2e-05	0	0
644	2e-05	-1e-05	-4e-05	-2e-05	-2e-05	4e-05	-2e-05	0	0
645	2e-05	-1e-05	-4e-05	-2e-05	-2e-05	4e-05	-2e-05	0	0
646	2e-05	-1e-05	-4e-05	-2e-05	-2e-05	4e-05	-2e-05	0	0
647	2e-05	-1e-05	-4e-05	-2e-05	-2e-05	4e-05	-2e-05	0	0
648	2e-05	-1e-05	-4e-05	-2e-05	-2e-05	4e-05	-2e-05	0	0
649	2e-05	-1e-05	-4e-05	-2e-05	-2e-05	4e-05	-2e-05	0	0
650	2e-05	-1e-05	-4e-05	-2e-05	-2e-05	4e-05	-2e-05	0	0
651	2e-05	-1e-05	-4e-05	-2e-05	-2e-05	4e-05	-2e-05	0	0
652	2e-05	-1e-05	-4e-05	-2e-05	-2e-05	4e-05	-2e-05	0	0
653	2e-05	-1e-05	-4e-05	-2e-05	-2e-05	4e-05	-2e-05	0	0
654	2e-05	-1e-05	-4e-05	-2e-05	-2e-05	4e-05	-2e-05	0	0
655	2e-05	-1e-05	-4e-05	-2e-05	-2e-05	4e-05	-2e-05	0	0
656	2e-05	-1e-05	-4e-05	-2e-05	-2e-05	4e-05	-2e-05	0	0
657	2e-05	-1e-05	-4e-05	-2e-05	-2e-05	4e-05	-2e-05	0	0
658	2e-05	-1e-05	-4e-05	-2e-05	-2e-05	4e-05	-2e-05	0	0
659	2e-05	-1e-05	-4e-05	-2e-05	-2e-05	4e-05	-2e-05	0	0
660	0	-2e-05	-2e-05	-1e-05	1e-05	1e-05	-1e-05	0	0
661	0	-2e-05	-2e-05	-1e-05	1e-05	1e-05	-1e-05	0	0
662	-2e-05	-1e-05	-1e-05	-2e-05	-2e-05	-0.00012	-2e-05	-2e-05	0
663	-2e-05	-1e-05	-1e-05	-2e-05	-2e-05	-0.00012	-2e-05	-2e-05	0
664	-2e-05	-1e-05	-1e-05	-2e-05	-2e-05	-0.00012	-2e-05	-2e-05	0
665	-2e-05	-1e-05	-1e-05	-2e-05	-2e-05	-0.00012	-2e-05	-2e-05	0
666	-2e-05	-1e-05	-1e-05	-2e-05	-2e-05	-0.00012	-2e-05	-2e-05	0
667	-2e-05	-1e-05	-1e-05	-2e-05	-2e-05	-0.00012	-2e-05	-2e-05	0
668	-2e-05	-1e-05	-1e-05	-2e-05	-2e-05	-0.00012	-2e-05	-2e-05	0
669	-2e-05	-1e-05	-1e-05	-2e-05	-2e-05	-0.00012	-2e-05	-2e-05	0
670	-2e-05	-1e-05	-1e-05	-2e-05	-2e-05	-0.00012	-2e-05	-2e-05	0
671	-2e-05	-1e-05	-1e-05	-2e-05	-2e-05	-0.00012	-2e-05	-2e-05	0
672	-2e-05	-1e-05	-1e-05	-2e-05	-2e-05	-0.00012	-2e-05	-2e-05	0
673	-2e-05	-1e-05	-1e-05	-2e-05	-2e-05	-0.00012	-2e-05	-2e-05	0
674	-2e-05	-1e-05	-1e-05	-2e-05	-2e-05	-0.00012	-2e-05	-2e-05	0
675	-2e-05	-1e-05	2e-05	-3e-05	-9e-05	-4e-05	0	-2e-05	0
676	-2e-05	-1e-05	2e-05	-3e-05	-9e-05	-4e-05	0	-2e-05	0
677	-3e-05	-1e-05	0	-1e-05	-5e-05	-3e-05	-4e-05	-1e-05	0
678	-3e-05	-1e-05	0	-1e-05	-5e-05	-3e-05	-4e-05	-1e-05	0
679	-3e-05	-1e-05	0	-1e-05	-5e-05	-3e-05	-4e-05	-1e-05	0
680	-3e-05	-1e-05	0	-1e-05	-5e-05	-3e-05	-4e-05	-1e-05	0
681	-3e-05	-1e-05	0	-1e-05	-5e-05	-3e-05	-4e-05	-1e-05	0
682	-3e-05	-1e-05	0	-1e-05	-5e-05	-3e-05	-4e-05	-1e-05	0
683	-3e-05	-1e-05	0	-1e-05	-5e-05	-3e-05	-4e-05	-1e-05	0
684	-3e-05	-1e-05	0	-1e-05	-5e-05	-3e-05	-4e-05	-1e-05	0
685	-3e-05	-1e-05	0	-1e-05	-5e-05	-3e-05	-4e-05	-1e-05	0
686	-3e-05	-1e-05	0	-1e-05	-5e-05	-3e-05	-4e-05	-1e-05	0
688	-3e-05	-1e-05	0	-1e-05	-5e-05	-3e-05	-4e-05	-1e-05	0
689	-3e-05	-1e-05	0	-1e-05	-5e-05	-3e-05	-4e-05	-1e-05	0
690	-3e-05	-1e-05	0	-1e-05	-5e-05	-3e-05	-4e-05	-1e-05	0
691	-3e-05	-1e-05	0	-1e-05	-5e-05	-3e-05	-4e-05	-1e-05	0
692	-3e-05	-1e-05	0	-1e-05	-5e-05	-3e-05	-4e-05	-1e-05	0
693	-3e-05	-1e-05	0	-1e-05	-5e-05	-3e-05	-4e-05	-1e-05	0
694	-3e-05	-1e-05	0	-1e-05	-5e-05	-3e-05	-4e-05	-1e-05	0
695	-3e-05	-1e-05	0	-1e-05	-5e-05	-3e-05	-4e-05	-1e-05	0
696	-3e-05	-1e-05	0	-1e-05	-5e-05	-3e-05	-4e-05	-1e-05	0
697	-3e-05	-1e-05	0	-1e-05	-5e-05	-3e-05	-4e-05	-1e-05	0
698	-1e-05	-2e-05	-2e-05	0	-2e-05	-1e-05	0	-2e-05	0
699	-1e-05	-2e-05	-2e-05	0	-2e-05	-1e-05	0	-2e-05	0
700	-2e-05	-1e-05	-1e-05	-2e-05	0	-9e-05	-1e-05	-1e-05	0
701	-2e-05	-1e-05	-1e-05	-2e-05	0	-9e-05	-1e-05	-1e-05	0
702	-2e-05	-1e-05	-1e-05	-2e-05	0	-9e-05	-1e-05	-1e-05	0
703	-2e-05	-1e-05	-1e-05	-2e-05	0	-9e-05	-1e-05	-1e-05	0
704	-2e-05	-1e-05	-1e-05	-2e-05	0	-9e-05	-1e-05	-1e-05	0
705	-2e-05	-1e-05	-1e-05	-2e-05	0	-9e-05	-1e-05	-1e-05	0
706	-2e-05	-1e-05	-1e-05	-2e-05	0	-9e-05	-1e-05	-1e-05	0
707	-2e-05	-1e-05	-1e-05	-2e-05	0	-9e-05	-1e-05	-1e-05	0
708	-2e-05	-1e-05	-1e-05	-2e-05	0	-9e-05	-1e-05	-1e-05	0
709	-2e-05	-1e-05	-1e-05	-2e-05	0	-9e-05	-1e-05	-1e-05	0
710	-2e-05	-1e-05	-1e-05	-2e-05	0	-9e-05	-1e-05	-1e-05	0
711	-2e-05	-1e-05	-1e-05	-2e-05	0	-9e-05	-1e-05	-1e-05	0
712	-2e-05	-1e-05	-1e-05	-2e-05	0	-9e-05	-1e-05	-1e-05	0
713	-2e-05	-1e-05	-1e-05	-2e-05	0	-9e-05	-1e-05	-1e-05	0
714	-2e-05	-1e-05	-1e-05	-2e-05	0	-9e-05	-1e-05	-1e-05	0
715	-2e-05	-1e-05	-1e-05	-2e-05	0	-9e-05	-1e-05	-1e-05	0
716	-2e-05	-1e-05	-1e-05	-2e-05	0	-9e-05	-1e-05	-1e-05	0
717	-2e-05	-1e-05	-1e-05	-2e-05	0	-9e-05	-1e-05	-1e-05	0
718	-2e-05	-1e-05	-1e-05	-2e-05	0	-9e-05	-1e-05	-1e-05	0
719	-2e-05	-1e-05	-1e-05	-2e-05	0	-9e-05	-1e-05	-1e-05	0
720	0	-1e-05	-1e-05	-2e-05	-3e-05	-0.00026	-3e-05	1e-05	0
721	0	-1e-05	-1e-05	-2e-05	-3e-05	-0.00026	-3e-05	1e-05	0
722	-1e-05	-1e-05	0	0	-3e-05	-0.00013	-4e-05	-1e-05	0
723	-1e-05	-1e-05	0	0	-3e-05	-0.00013	-4e-05	-1e-05	0
724	-1e-05	-1e-05	0	0	-3e-05	-0.00013	-4e-05	-1e-05	0
725	-1e-05	-1e-05	0	0	-3e-05	-0.00013	-4e-05	-1e-05	0
726	-1e-05	-1e-05	0	0	-3e-05	-0.00013	-4e-05	-1e-05	0
727	-1e-05	-1e-05	0	0	-3e-05	-0.00013	-4e-05	-1e-05	0
728	-1e-05	-1e-05	0	0	-3e-05	-0.00013	-4e-05	-1e-05	0
729	-1e-05	-1e-05	0	0	-3e-05	-0.00013	-4e-05	-1e-05	0
730	-1e-05	-1e-05	0	0	-3e-05	-0.00013	-4e-05	-1e-05	0
731	-1e-05	-1e-05	0	0	-3e-05	-0.00013	-4e-05	-1e-05	0
732	-1e-05	-1e-05	0	0	-3e-05	-0.00013	-4e-05	-1e-05	0
733	-1e-05	-1e-05	0	0	-3e-05	-0.00013	-4e-05	-1e-05	0
734	-1e-05	-1e-05	0	0	-3e-05	-0.00013	-4e-05	-1e-05	0
735	-1e-05	-2e-05	-3e-05	1e-05	6e-05	7e-05	0	0	0
736	-1e-05	-2e-05	-3e-05	1e-05	6e-05	7e-05	0	0	0
738	0	-3e-05	-1e-05	-1e-05	-7e-05	-0.0002	-4e-05	0	0
739	0	-3e-05	-1e-05	-1e-05	-7e-05	-0.0002	-4e-05	0	0
740	0	-3e-05	-1e-05	-1e-05	-7e-05	-0.0002	-4e-05	0	0
741	0	-3e-05	-1e-05	-1e-05	-7e-05	-0.0002	-4e-05	0	0
742	0	-3e-05	-1e-05	-1e-05	-7e-05	-0.0002	-4e-05	0	0
743	0	-3e-05	-1e-05	-1e-05	-7e-05	-0.0002	-4e-05	0	0
744	0	-3e-05	-1e-05	-1e-05	-7e-05	-0.0002	-4e-05	0	0
745	0	-3e-05	-1e-05	-1e-05	-7e-05	-0.0002	-4e-05	0	0
746	0	-3e-05	-1e-05	-1e-05	-7e-05	-0.0002	-4e-05	0	0
747	0	-3e-05	-1e-05	-1e-05	-7e-05	-0.0002	-4e-05	0	0
748	0	-3e-05	-1e-05	-1e-05	-7e-05	-0.0002	-4e-05	0	0
749	0	-3e-05	-1e-05	-1e-05	-7e-05	-0.0002	-4e-05	0	0
750	0	-3e-05	-1e-05	-1e-05	-7e-05	-0.0002	-4e-05	0	0
751	0	-3e-05	-1e-05	-1e-05	-7e-05	-0.0002	-4e-05	0	0
752	0	-3e-05	-1e-05	-1e-05	-7e-05	-0.0002	-4e-05	0	0
753	0	-3e-05	-1e-05	-1e-05	-7e-05	-0.0002	-4e-05	0	0
754	0	-3e-05	-1e-05	-1e-05	-7e-05	-0.0002	-4e-05	0	0
755	0	-3e-05	-1e-05	-1e-05	-7e-05	-0.0002	-4e-05	0	0
756	0	-3e-05	-1e-05	-1e-05	-7e-05	-0.0002	-4e-05	0	0
757	0	-3e-05	-1e-05	-1e-05	-7e-05	-0.0002	-4e-05	0	0
758	-1e-05	0	-1e-05	1e-05	0	9e-05	1e-05	-2e-05	0
759	-1e-05	1e-05	-1e-05	-2e-05	1e-05	8e-05	0	-1e-05	0
760	-1e-05	1e-05	-1e-05	-2e-05	1e-05	8e-05	0	-1e-05	0
761	-1e-05	1e-05	-1e-05	-2e-05	1e-05	8e-05	0	-1e-05	0
762	-1e-05	1e-05	-1e-05	-2e-05	1e-05	8e-05	0	-1e-05	0
763	-1e-05	1e-05	-1e-05	-2e-05	1e-05	8e-05	0	-1e-05	0
764	-1e-05	1e-05	-1e-05	-2e-05	1e-05	8e-05	0	-1e-05	0
765	-1e-05	1e-05	-1e-05	-2e-05	1e-05	8e-05	0	-1e-05	0
766	-1e-05	1e-05	-1e-05	-2e-05	1e-05	8e-05	0	-1e-05	0
767	-1e-05	1e-05	-1e-05	-2e-05	1e-05	8e-05	0	-1e-05	0
768	-1e-05	1e-05	-1e-05	-2e-05	1e-05	8e-05	0	-1e-05	0
769	-1e-05	1e-05	-1e-05	-2e-05	1e-05	8e-05	0	-1e-05	0
770	-1e-05	1e-05	-1e-05	-2e-05	1e-05	8e-05	0	-1e-05	0
771	-1e-05	1e-05	-1e-05	-2e-05	1e-05	8e-05	0	-1e-05	0
772	-1e-05	1e-05	-1e-05	-2e-05	1e-05	8e-05	0	-1e-05	0
773	-1e-05	1e-05	-1e-05	-2e-05	1e-05	8e-05	0	-1e-05	0
774	-1e-05	1e-05	-1e-05	-2e-05	1e-05	8e-05	0	-1e-05	0
775	-1e-05	1e-05	-1e-05	-2e-05	1e-05	8e-05	0	-1e-05	0
776	-1e-05	1e-05	-1e-05	-2e-05	1e-05	8e-05	0	-1e-05	0
777	-1e-05	1e-05	-1e-05	-2e-05	1e-05	8e-05	0	-1e-05	0
778	-1e-05	1e-05	-1e-05	-2e-05	1e-05	8e-05	0	-1e-05	0
779	-1e-05	1e-05	-1e-05	-2e-05	1e-05	8e-05	0	-1e-05	0
780	-1e-05	-4e-05	-3e-05	-3e-05	1e-05	7e-05	-1e-05	0	0
781	-1e-05	-4e-05	-3e-05	-3e-05	1e-05	7e-05	-1e-05	0	0
782	-1e-05	-2e-05	-2e-05	-1e-05	2e-05	6e-05	0	-1e-05	0
783	-1e-05	-2e-05	-2e-05	-1e-05	2e-05	6e-05	0	-1e-05	0
784	-1e-05	-2e-05	-2e-05	-1e-05	2e-05	6e-05	0	-1e-05	0
785	-1e-05	-2e-05	-2e-05	-1e-05	2e-05	6e-05	0	-1e-05	0
786	-1e-05	-2e-05	-2e-05	-1e-05	2e-05	6e-05	0	-1e-05	0
788	-1e-05	-2e-05	-2e-05	-1e-05	2e-05	6e-05	0	-1e-05	0
789	-1e-05	-2e-05	-2e-05	-1e-05	2e-05	6e-05	0	-1e-05	0
790	-1e-05	-2e-05	-2e-05	-1e-05	2e-05	6e-05	0	-1e-05	0
791	-1e-05	-2e-05	-2e-05	-1e-05	2e-05	6e-05	0	-1e-05	0
792	-1e-05	-2e-05	-2e-05	-1e-05	2e-05	6e-05	0	-1e-05	0
793	-1e-05	-2e-05	-2e-05	-1e-05	2e-05	6e-05	0	-1e-05	0
794	-1e-05	-2e-05	-2e-05	-1e-05	2e-05	6e-05	0	-1e-05	0
795	-1e-05	-1e-05	1e-05	1e-05	-2e-05	-5e-05	-1e-05	0	0
796	-1e-05	-1e-05	1e-05	1e-05	-2e-05	-5e-05	-1e-05	0	0
797	-1e-05	-1e-05	1e-05	1e-05	-2e-05	-5e-05	-1e-05	0	0
798	-1e-05	-1e-05	1e-05	1e-05	-2e-05	-5e-05	-1e-05	0	0
799	-1e-05	-1e-05	1e-05	1e-05	-2e-05	-5e-05	-1e-05	0	0
800	-1e-05	-1e-05	1e-05	1e-05	-2e-05	-5e-05	-1e-05	0	0
801	-1e-05	-3e-05	-1e-05	-1e-05	1e-05	0	0	-2e-05	0
802	-1e-05	-3e-05	-1e-05	-1e-05	1e-05	0	0	-2e-05	0
803	-1e-05	-3e-05	-1e-05	-1e-05	1e-05	0	0	-2e-05	0
804	-1e-05	-3e-05	-1e-05	-1e-05	1e-05	0	0	-2e-05	0
805	-1e-05	-3e-05	-1e-05	-1e-05	1e-05	0	0	-2e-05	0
806	-1e-05	-3e-05	-1e-05	-1e-05	1e-05	0	0	-2e-05	0
807	-1e-05	-3e-05	-1e-05	-1e-05	1e-05	0	0	-2e-05	0
808	-1e-05	-3e-05	-1e-05	-1e-05	1e-05	0	0	-2e-05	0
809	-1e-05	-3e-05	-1e-05	-1e-05	1e-05	0	0	-2e-05	0
810	-1e-05	-3e-05	-1e-05	-1e-05	1e-05	0	0	-2e-05	0
811	-1e-05	-3e-05	-1e-05	-1e-05	1e-05	0	0	-2e-05	0
812	-1e-05	-3e-05	-1e-05	-1e-05	1e-05	0	0	-2e-05	0
813	-1e-05	-3e-05	-1e-05	-1e-05	1e-05	0	0	-2e-05	0
814	-1e-05	-3e-05	-1e-05	-1e-05	1e-05	0	0	-2e-05	0
815	-1e-05	-3e-05	-1e-05	-1e-05	1e-05	0	0	-2e-05	0
816	-1e-05	-3e-05	-1e-05	-1e-05	1e-05	0	0	-2e-05	0
817	-1e-05	-3e-05	-1e-05	-1e-05	1e-05	0	0	-2e-05	0
818	-1e-05	-1e-05	-1e-05	-2e-05	-6e-05	-0.00012	-5e-05	-3e-05	0
819	0	0	-2e-05	-2e-05	-3e-05	0	2e-05	0	0
820	0	0	-2e-05	-2e-05	-3e-05	0	2e-05	0	0
821	0	0	-2e-05	-2e-05	-3e-05	0	2e-05	0	0
822	0	0	-2e-05	-2e-05	-3e-05	0	2e-05	0	0
823	0	0	-2e-05	-2e-05	-3e-05	0	2e-05	0	0
824	0	0	-2e-05	-2e-05	-3e-05	0	2e-05	0	0
825	0	0	-2e-05	-2e-05	-3e-05	0	2e-05	0	0
826	0	0	-2e-05	-2e-05	-3e-05	0	2e-05	0	0
827	0	0	-2e-05	-2e-05	-3e-05	0	2e-05	0	0
828	0	0	-2e-05	-2e-05	-3e-05	0	2e-05	0	0
829	0	0	-2e-05	-2e-05	-3e-05	0	2e-05	0	0
830	0	0	-2e-05	-2e-05	-3e-05	0	2e-05	0	0
831	0	0	-2e-05	-2e-05	-3e-05	0	2e-05	0	0
832	0	0	-2e-05	-2e-05	-3e-05	0	2e-05	0	0
833	0	0	-2e-05	-2e-05	-3e-05	0	2e-05	0	0
834	0	0	-2e-05	-2e-05	-3e-05	0	2e-05	0	0
835	0	0	-2e-05	-2e-05	-3e-05	0	2e-05	0	0
836	0	0	-2e-05	-2e-05	-3e-05	0	2e-05	0	0
838	0	0	-2e-05	-2e-05	-3e-05	0	2e-05	0	0
839	0	0	-2e-05	-2e-05	-3e-05	0	2e-05	0	0
840	0	-3e-05	-1e-05	-3e-05	-7e-05	-0.00054	-4e-05	0	0
841	0	-3e-05	-1e-05	-3e-05	-7e-05	-0.00054	-4e-05	0	0
842	-2e-05	-2e-05	-1e-05	-3e-05	1e-05	-0.00022	-5e-05	0	0
843	-2e-05	-2e-05	-1e-05	-3e-05	1e-05	-0.00022	-5e-05	0	0
844	-2e-05	-2e-05	-1e-05	-3e-05	1e-05	-0.00022	-5e-05	0	0
845	-2e-05	-2e-05	-1e-05	-3e-05	1e-05	-0.00022	-5e-05	0	0
846	-2e-05	-2e-05	-1e-05	-3e-05	1e-05	-0.00022	-5e-05	0	0
847	-2e-05	-2e-05	-1e-05	-3e-05	1e-05	-0.00022	-5e-05	0	0
848	-2e-05	-2e-05	-1e-05	-3e-05	1e-05	-0.00022	-5e-05	0	0
849	-2e-05	-2e-05	-1e-05	-3e-05	1e-05	-0.00022	-5e-05	0	0
850	-2e-05	-2e-05	-1e-05	-3e-05	1e-05	-0.00022	-5e-05	0	0
851	-2e-05	-2e-05	-1e-05	-3e-05	1e-05	-0.00022	-5e-05	0	0
852	-2e-05	-2e-05	-1e-05	-3e-05	1e-05	-0.00022	-5e-05	0	0
853	-2e-05	-2e-05	-1e-05	-3e-05	1e-05	-0.00022	-5e-05	0	0
854	-2e-05	-2e-05	-1e-05	-3e-05	1e-05	-0.00022	-5e-05	0	0
855	-2e-05	-2e-05	-1e-05	-3e-05	1e-05	-0.00022	-5e-05	0	0
856	-3e-05	2e-05	-1e-05	1e-05	0	0.00013	2e-05	-3e-05	0
857	-3e-05	2e-05	-1e-05	1e-05	0	0.00013	2e-05	-3e-05	0
858	-3e-05	2e-05	-1e-05	1e-05	0	0.00013	2e-05	-3e-05	0
859	-3e-05	2e-05	-1e-05	1e-05	0	0.00013	2e-05	-3e-05	0
860	-3e-05	2e-05	-1e-05	1e-05	0	0.00013	2e-05	-3e-05	0
861	-3e-05	2e-05	-1e-05	1e-05	0	0.00013	2e-05	-3e-05	0
862	-3e-05	2e-05	-1e-05	1e-05	0	0.00013	2e-05	-3e-05	0
863	-1e-05	-3e-05	-1e-05	2e-05	-2e-05	6e-05	2e-05	1e-05	0
864	-1e-05	-3e-05	-1e-05	2e-05	-2e-05	6e-05	2e-05	1e-05	0
865	-1e-05	-3e-05	-1e-05	2e-05	-2e-05	6e-05	2e-05	1e-05	0
866	-1e-05	-3e-05	-1e-05	2e-05	-2e-05	6e-05	2e-05	1e-05	0
867	-1e-05	-3e-05	-1e-05	2e-05	-2e-05	6e-05	2e-05	1e-05	0
868	-1e-05	-3e-05	-1e-05	2e-05	-2e-05	6e-05	2e-05	1e-05	0
869	-1e-05	-3e-05	-1e-05	2e-05	-2e-05	6e-05	2e-05	1e-05	0
870	-1e-05	-3e-05	-1e-05	2e-05	-2e-05	6e-05	2e-05	1e-05	0
871	-1e-05	-3e-05	-1e-05	2e-05	-2e-05	6e-05	2e-05	1e-05	0
872	-1e-05	-3e-05	-1e-05	2e-05	-2e-05	6e-05	2e-05	1e-05	0
873	-1e-05	-3e-05	-1e-05	2e-05	-2e-05	6e-05	2e-05	1e-05	0
874	-1e-05	-3e-05	-1e-05	2e-05	-2e-05	6e-05	2e-05	1e-05	0
875	-1e-05	-3e-05	-1e-05	2e-05	-2e-05	6e-05	2e-05	1e-05	0
876	-1e-05	-3e-05	-1e-05	2e-05	-2e-05	6e-05	2e-05	1e-05	0
877	-1e-05	-3e-05	-1e-05	2e-05	-2e-05	6e-05	2e-05	1e-05	0
878	-1e-05	0	0	0	3e-05	0.00011	0	0	0
879	-1e-05	-2e-05	-2e-05	-1e-05	-3e-05	6e-05	0	-2e-05	0
880	-1e-05	-2e-05	-2e-05	-1e-05	-3e-05	6e-05	0	-2e-05	0
881	-1e-05	-2e-05	-2e-05	-1e-05	-3e-05	6e-05	0	-2e-05	0
882	-1e-05	-2e-05	-2e-05	-1e-05	-3e-05	6e-05	0	-2e-05	0
883	-1e-05	-2e-05	-2e-05	-1e-05	-3e-05	6e-05	0	-2e-05	0
884	-1e-05	-2e-05	-2e-05	-1e-05	-3e-05	6e-05	0	-2e-05	0
885	-1e-05	-2e-05	-2e-05	-1e-05	-3e-05	6e-05	0	-2e-05	0
886	-1e-05	-2e-05	-2e-05	-1e-05	-3e-05	6e-05	0	-2e-05	0
888	-1e-05	-2e-05	-2e-05	-1e-05	-3e-05	6e-05	0	-2e-05	0
889	-1e-05	-2e-05	-2e-05	-1e-05	-3e-05	6e-05	0	-2e-05	0
890	-1e-05	-2e-05	-2e-05	-1e-05	-3e-05	6e-05	0	-2e-05	0
891	-1e-05	-2e-05	-2e-05	-1e-05	-3e-05	6e-05	0	-2e-05	0
892	-1e-05	-2e-05	-2e-05	-1e-05	-3e-05	6e-05	0	-2e-05	0
893	-1e-05	-2e-05	-2e-05	-1e-05	-3e-05	6e-05	0	-2e-05	0
894	-1e-05	-2e-05	-2e-05	-1e-05	-3e-05	6e-05	0	-2e-05	0
895	-1e-05	-2e-05	-2e-05	-1e-05	-3e-05	6e-05	0	-2e-05	0
896	-1e-05	-2e-05	-2e-05	-1e-05	-3e-05	6e-05	0	-2e-05	0
897	-1e-05	-2e-05	-2e-05	-1e-05	-3e-05	6e-05	0	-2e-05	0
898	-1e-05	-2e-05	-2e-05	-1e-05	-3e-05	6e-05	0	-2e-05	0
899	-1e-05	-2e-05	-2e-05	-1e-05	-3e-05	6e-05	0	-2e-05	0
900	1e-05	-1e-05	-2e-05	0	-2e-05	3e-05	1e-05	0	0
901	1e-05	-1e-05	-2e-05	0	-2e-05	3e-05	1e-05	0	0
902	0	-2e-05	-1e-05	-2e-05	2e-05	0.00015	0	-2e-05	0
903	0	-2e-05	-1e-05	-2e-05	2e-05	0.00015	0	-2e-05	0
904	0	-2e-05	-1e-05	-2e-05	2e-05	0.00015	0	-2e-05	0
905	0	-2e-05	-1e-05	-2e-05	2e-05	0.00015	0	-2e-05	0
906	0	-2e-05	-1e-05	-2e-05	2e-05	0.00015	0	-2e-05	0
907	0	-2e-05	-1e-05	-2e-05	2e-05	0.00015	0	-2e-05	0
908	0	-2e-05	-1e-05	-2e-05	2e-05	0.00015	0	-2e-05	0
909	0	-2e-05	-1e-05	-2e-05	2e-05	0.00015	0	-2e-05	0
910	0	-2e-05	-1e-05	-2e-05	2e-05	0.00015	0	-2e-05	0
911	0	-2e-05	-1e-05	-2e-05	2e-05	0.00015	0	-2e-05	0
912	0	-2e-05	-1e-05	-2e-05	2e-05	0.00015	0	-2e-05	0
913	0	-2e-05	-1e-05	-2e-05	2e-05	0.00015	0	-2e-05	0
914	0	-2e-05	-1e-05	-2e-05	2e-05	0.00015	0	-2e-05	0
915	-2e-05	0	0	-2e-05	1e-05	5e-05	-1e-05	0	0
916	-2e-05	0	0	-2e-05	1e-05	5e-05	-1e-05	0	0
917	-2e-05	0	0	-2e-05	1e-05	5e-05	-1e-05	0	0
918	-2e-05	0	0	-2e-05	1e-05	5e-05	-1e-05	0	0
919	-2e-05	0	0	-2e-05	1e-05	5e-05	-1e-05	0	0
920	-2e-05	0	0	-2e-05	1e-05	5e-05	-1e-05	0	0
921	0	1e-05	1e-05	0	1e-05	9e-05	0	-1e-05	0
922	0	1e-05	1e-05	0	1e-05	9e-05	0	-1e-05	0
923	0	1e-05	1e-05	0	1e-05	9e-05	0	-1e-05	0
924	0	1e-05	1e-05	0	1e-05	9e-05	0	-1e-05	0
925	0	1e-05	1e-05	0	1e-05	9e-05	0	-1e-05	0
926	0	1e-05	1e-05	0	1e-05	9e-05	0	-1e-05	0
927	0	1e-05	1e-05	0	1e-05	9e-05	0	-1e-05	0
928	0	1e-05	1e-05	0	1e-05	9e-05	0	-1e-05	0
929	0	1e-05	1e-05	0	1e-05	9e-05	0	-1e-05	0
930	0	1e-05	1e-05	0	1e-05	9e-05	0	-1e-05	0
931	0	1e-05	1e-05	0	1e-05	9e-05	0	-1e-05	0
932	0	1e-05	1e-05	0	1e-05	9e-05	0	-1e-05	0
933	0	1e-05	1e-05	0	1e-05	9e-05	0	-1e-05	0
934	0	1e-05	1e-05	0	1e-05	9e-05	0	-1e-05	0
935	0	1e-05	1e-05	0	1e-05	9e-05	0	-1e-05	0
936	0	1e-05	1e-05	0	1e-05	9e-05	0	-1e-05	0
938	0	-1e-05	0	-1e-05	-1e-05	0.00026	3e-05	1e-05	0
939	-1e-05	0	0	0	2e-05	9e-05	-2e-05	-2e-05	0
940	-1e-05	0	0	0	2e-05	9e-05	-2e-05	-2e-05	0
941	-1e-05	0	0	0	2e-05	9e-05	-2e-05	-2e-05	0
942	-1e-05	0	0	0	2e-05	9e-05	-2e-05	-2e-05	0
943	-1e-05	0	0	0	2e-05	9e-05	-2e-05	-2e-05	0
944	-1e-05	0	0	0	2e-05	9e-05	-2e-05	-2e-05	0
945	-1e-05	0	0	0	2e-05	9e-05	-2e-05	-2e-05	0
946	-1e-05	0	0	0	2e-05	9e-05	-2e-05	-2e-05	0
947	-1e-05	0	0	0	2e-05	9e-05	-2e-05	-2e-05	0
948	-1e-05	0	0	0	2e-05	9e-05	-2e-05	-2e-05	0
949	-1e-05	0	0	0	2e-05	9e-05	-2e-05	-2e-05	0
950	-1e-05	0	0	0	2e-05	9e-05	-2e-05	-2e-05	0
951	-1e-05	0	0	0	2e-05	9e-05	-2e-05	-2e-05	0
952	-1e-05	0	0	0	2e-05	9e-05	-2e-05	-2e-05	0
953	-1e-05	0	0	0	2e-05	9e-05	-2e-05	-2e-05	0
954	-1e-05	0	0	0	2e-05	9e-05	-2e-05	-2e-05	0
955	-1e-05	0	0	0	2e-05	9e-05	-2e-05	-2e-05	0
956	-1e-05	0	0	0	2e-05	9e-05	-2e-05	-2e-05	0
957	-1e-05	0	0	0	2e-05	9e-05	-2e-05	-2e-05	0
958	-1e-05	0	0	0	2e-05	9e-05	-2e-05	-2e-05	0
959	-1e-05	0	0	0	2e-05	9e-05	-2e-05	-2e-05	0
960	0	-1e-05	-2e-05	-2e-05	7e-05	0.00021	1e-05	-1e-05	0
961	0	-1e-05	-2e-05	-2e-05	7e-05	0.00021	1e-05	-1e-05	0
962	-1e-05	0	-1e-05	-2e-05	-7e-05	-0.00028	-3e-05	-2e-05	0
963	-1e-05	0	-1e-05	-2e-05	-7e-05	-0.00028	-3e-05	-2e-05	0
964	-1e-05	0	-1e-05	-2e-05	-7e-05	-0.00028	-3e-05	-2e-05	0
965	-1e-05	0	-1e-05	-2e-05	-7e-05	-0.00028	-3e-05	-2e-05	0
966	-1e-05	0	-1e-05	-2e-05	-7e-05	-0.00028	-3e-05	-2e-05	0
967	-1e-05	0	-1e-05	-2e-05	-7e-05	-0.00028	-3e-05	-2e-05	0
968	-1e-05	0	-1e-05	-2e-05	-7e-05	-0.00028	-3e-05	-2e-05	0
969	-1e-05	0	-1e-05	-2e-05	-7e-05	-0.00028	-3e-05	-2e-05	0
970	-1e-05	0	-1e-05	-2e-05	-7e-05	-0.00028	-3e-05	-2e-05	0
971	-1e-05	0	-1e-05	-2e-05	-7e-05	-0.00028	-3e-05	-2e-05	0
972	-1e-05	0	-1e-05	-2e-05	-7e-05	-0.00028	-3e-05	-2e-05	0
973	-1e-05	0	-1e-05	-2e-05	-7e-05	-0.00028	-3e-05	-2e-05	0
974	-1e-05	0	-1e-05	-2e-05	-7e-05	-0.00028	-3e-05	-2e-05	0
975	0	0	0	0	-2e-05	3e-05	-2e-05	-2e-05	0
976	0	0	0	0	-2e-05	3e-05	-2e-05	-2e-05	0
977	0	0	0	0	-2e-05	3e-05	-2e-05	-2e-05	0
978	0	0	0	0	-2e-05	3e-05	-2e-05	-2e-05	0
979	0	0	0	0	-2e-05	3e-05	-2e-05	-2e-05	0
980	0	0	0	0	-2e-05	3e-05	-2e-05	-2e-05	0
981	0	0	0	0	-2e-05	3e-05	-2e-05	-2e-05	0
982	-1e-05	-3e-05	-2e-05	-1e-05	1e-05	6e-05	-1e-05	0	0
983	-1e-05	-3e-05	-2e-05	-1e-05	1e-05	6e-05	-1e-05	0	0
984	-1e-05	-3e-05	-2e-05	-1e-05	1e-05	6e-05	-1e-05	0	0
985	-1e-05	-3e-05	-2e-05	-1e-05	1e-05	6e-05	-1e-05	0	0
986	-1e-05	-3e-05	-2e-05	-1e-05	1e-05	6e-05	-1e-05	0	0
988	-1e-05	-3e-05	-2e-05	-1e-05	1e-05	6e-05	-1e-05	0	0
989	-1e-05	-3e-05	-2e-05	-1e-05	1e-05	6e-05	-1e-05	0	0
990	-1e-05	-3e-05	-2e-05	-1e-05	1e-05	6e-05	-1e-05	0	0
991	-1e-05	-3e-05	-2e-05	-1e-05	1e-05	6e-05	-1e-05	0	0
992	-1e-05	-3e-05	-2e-05	-1e-05	1e-05	6e-05	-1e-05	0	0
993	-1e-05	-3e-05	-2e-05	-1e-05	1e-05	6e-05	-1e-05	0	0
994	-1e-05	-3e-05	-2e-05	-1e-05	1e-05	6e-05	-1e-05	0	0
995	-1e-05	-3e-05	-2e-05	-1e-05	1e-05	6e-05	-1e-05	0	0
996	-1e-05	-3e-05	-2e-05	-1e-05	1e-05	6e-05	-1e-05	0	0
997	-1e-05	-3e-05	-2e-05	-1e-05	1e-05	6e-05	-1e-05	0	0
998	0	-1e-05	-2e-05	-2e-05	-1e-05	-9e-05	-3e-05	-1e-05	0
999	0	-2e-05	-2e-05	1e-05	0	-3e-05	-2e-05	-2e-05	0
1000	0	-2e-05	-2e-05	1e-05	0	-3e-05	-2e-05	-2e-05	0
1001	0	-2e-05	-2e-05	1e-05	0	-3e-05	-2e-05	-2e-05	0
1002	0	-2e-05	-2e-05	1e-05	0	-3e-05	-2e-05	-2e-05	0
1003	0	-2e-05	-2e-05	1e-05	0	-3e-05	-2e-05	-2e-05	0
1004	0	-2e-05	-2e-05	1e-05	0	-3e-05	-2e-05	-2e-05	0
1005	0	-2e-05	-2e-05	1e-05	0	-3e-05	-2e-05	-2e-05	0
1006	0	-2e-05	-2e-05	1e-05	0	-3e-05	-2e-05	-2e-05	0
1007	0	-2e-05	-2e-05	1e-05	0	-3e-05	-2e-05	-2e-05	0
1008	0	-2e-05	-2e-05	1e-05	0	-3e-05	-2e-05	-2e-05	0
1009	0	-2e-05	-2e-05	1e-05	0	-3e-05	-2e-05	-2e-05	0
1010	0	-2e-05	-2e-05	1e-05	0	-3e-05	-2e-05	-2e-05	0
1012	0	-2e-05	-2e-05	1e-05	0	-3e-05	-2e-05	-2e-05	0
1013	0	-2e-05	-2e-05	1e-05	0	-3e-05	-2e-05	-2e-05	0
1014	0	-2e-05	-2e-05	1e-05	0	-3e-05	-2e-05	-2e-05	0
1015	0	-2e-05	-2e-05	1e-05	0	-3e-05	-2e-05	-2e-05	0
1016	0	-2e-05	-2e-05	1e-05	0	-3e-05	-2e-05	-2e-05	0
1017	0	-2e-05	-2e-05	1e-05	0	-3e-05	-2e-05	-2e-05	0
1020	0	0	-2e-05	-1e-05	0	-7e-05	-4e-05	-1e-05	0
1021	0	0	-2e-05	-1e-05	0	-7e-05	-4e-05	-1e-05	0
1022	0	-1e-05	0	0	-1e-05	1e-05	-1e-05	-1e-05	0
1023	0	-1e-05	0	0	-1e-05	1e-05	-1e-05	-1e-05	0
1024	0	-1e-05	0	0	-1e-05	1e-05	-1e-05	-1e-05	0
1025	0	-1e-05	0	0	-1e-05	1e-05	-1e-05	-1e-05	0
1027	0	-1e-05	0	0	-1e-05	1e-05	-1e-05	-1e-05	0
1028	0	-1e-05	0	0	-1e-05	1e-05	-1e-05	-1e-05	0
1033	0	-1e-05	0	0	-1e-05	1e-05	-1e-05	-1e-05	0
1034	0	-1e-05	0	0	-1e-05	1e-05	-1e-05	-1e-05	0
1036	-1e-05	-2e-05	0	1e-05	-1e-05	-0.00018	0	-2e-05	0
1037	-1e-05	-2e-05	0	1e-05	-1e-05	-0.00018	0	-2e-05	0
1038	-1e-05	-2e-05	0	1e-05	-1e-05	-0.00018	0	-2e-05	0
1039	-1e-05	-2e-05	0	1e-05	-1e-05	-0.00018	0	-2e-05	0
1040	-1e-05	-2e-05	0	1e-05	-1e-05	-0.00018	0	-2e-05	0
1041	-2e-05	0	-3e-05	-2e-05	-8e-05	-9e-05	0	-2e-05	0
1042	-2e-05	0	-3e-05	-2e-05	-8e-05	-9e-05	0	-2e-05	0
1043	-2e-05	0	-3e-05	-2e-05	-8e-05	-9e-05	0	-2e-05	0
1044	-2e-05	0	-3e-05	-2e-05	-8e-05	-9e-05	0	-2e-05	0
1045	-2e-05	0	-3e-05	-2e-05	-8e-05	-9e-05	0	-2e-05	0
1046	-2e-05	0	-3e-05	-2e-05	-8e-05	-9e-05	0	-2e-05	0
1047	-2e-05	0	-3e-05	-2e-05	-8e-05	-9e-05	0	-2e-05	0
1048	-2e-05	0	-3e-05	-2e-05	-8e-05	-9e-05	0	-2e-05	0
1049	-2e-05	0	-3e-05	-2e-05	-8e-05	-9e-05	0	-2e-05	0
1050	-2e-05	0	-3e-05	-2e-05	-8e-05	-9e-05	0	-2e-05	0
1051	-2e-05	0	-3e-05	-2e-05	-8e-05	-9e-05	0	-2e-05	0
1052	-2e-05	0	-3e-05	-2e-05	-8e-05	-9e-05	0	-2e-05	0
1053	-2e-05	0	-3e-05	-2e-05	-8e-05	-9e-05	0	-2e-05	0
1054	-2e-05	0	-3e-05	-2e-05	-8e-05	-9e-05	0	-2e-05	0
1055	-2e-05	0	-3e-05	-2e-05	-8e-05	-9e-05	0	-2e-05	0
1056	-2e-05	0	-3e-05	-2e-05	-8e-05	-9e-05	0	-2e-05	0
1057	-2e-05	0	-3e-05	-2e-05	-8e-05	-9e-05	0	-2e-05	0
1059	-1e-05	-2e-05	0	-2e-05	0	0.00012	1e-05	1e-05	0
1060	-1e-05	-2e-05	0	-2e-05	0	0.00012	1e-05	1e-05	0
1061	-1e-05	-2e-05	0	-2e-05	0	0.00012	1e-05	1e-05	0
1062	-1e-05	-2e-05	0	-2e-05	0	0.00012	1e-05	1e-05	0
1063	-1e-05	-2e-05	0	-2e-05	0	0.00012	1e-05	1e-05	0
1064	-1e-05	-2e-05	0	-2e-05	0	0.00012	1e-05	1e-05	0
1065	-1e-05	-2e-05	0	-2e-05	0	0.00012	1e-05	1e-05	0
1066	-1e-05	-2e-05	0	-2e-05	0	0.00012	1e-05	1e-05	0
1067	-1e-05	-2e-05	0	-2e-05	0	0.00012	1e-05	1e-05	0
1068	-1e-05	-2e-05	0	-2e-05	0	0.00012	1e-05	1e-05	0
1069	-1e-05	-2e-05	0	-2e-05	0	0.00012	1e-05	1e-05	0
1070	-1e-05	-2e-05	0	-2e-05	0	0.00012	1e-05	1e-05	0
1071	-1e-05	-2e-05	0	-2e-05	0	0.00012	1e-05	1e-05	0
1072	-1e-05	-2e-05	0	-2e-05	0	0.00012	1e-05	1e-05	0
1073	-1e-05	-2e-05	0	-2e-05	0	0.00012	1e-05	1e-05	0
1074	-1e-05	-2e-05	0	-2e-05	0	0.00012	1e-05	1e-05	0
1075	-1e-05	-2e-05	0	-2e-05	0	0.00012	1e-05	1e-05	0
1076	-1e-05	-2e-05	0	-2e-05	0	0.00012	1e-05	1e-05	0
1077	-1e-05	-2e-05	0	-2e-05	0	0.00012	1e-05	1e-05	0
1078	-1e-05	-2e-05	0	-2e-05	0	0.00012	1e-05	1e-05	0
1079	-1e-05	-2e-05	0	-2e-05	0	0.00012	1e-05	1e-05	0
1080	-1e-05	-2e-05	0	-2e-05	0	0.00012	1e-05	1e-05	0
1081	-1e-05	-2e-05	0	-2e-05	0	0.00012	1e-05	1e-05	0
1082	-1e-05	0	-1e-05	-3e-05	1e-05	0.0001	-1e-05	0	0
1083	1e-05	0	0	1e-05	-1e-05	-0.00053	-1e-05	0	0
1084	1e-05	0	0	1e-05	-1e-05	-0.00053	-1e-05	0	0
1085	1e-05	0	0	1e-05	-1e-05	-0.00053	-1e-05	0	0
1086	1e-05	0	0	1e-05	-1e-05	-0.00053	-1e-05	0	0
1088	1e-05	0	0	1e-05	-1e-05	-0.00053	-1e-05	0	0
1089	1e-05	0	0	1e-05	-1e-05	-0.00053	-1e-05	0	0
1090	1e-05	0	0	1e-05	-1e-05	-0.00053	-1e-05	0	0
1091	1e-05	0	0	1e-05	-1e-05	-0.00053	-1e-05	0	0
1092	1e-05	0	0	1e-05	-1e-05	-0.00053	-1e-05	0	0
1093	1e-05	0	0	1e-05	-1e-05	-0.00053	-1e-05	0	0
1094	1e-05	-1e-05	-4e-05	0	-3e-05	9e-05	-1e-05	-1e-05	0
1095	1e-05	-1e-05	-4e-05	0	-3e-05	9e-05	-1e-05	-1e-05	0
1096	1e-05	-1e-05	-4e-05	0	-3e-05	9e-05	-1e-05	-1e-05	0
1097	1e-05	-1e-05	-4e-05	0	-3e-05	9e-05	-1e-05	-1e-05	0
1098	1e-05	-1e-05	-4e-05	0	-3e-05	9e-05	-1e-05	-1e-05	0
1099	1e-05	-1e-05	-4e-05	0	-3e-05	9e-05	-1e-05	-1e-05	0
1100	1e-05	-1e-05	-4e-05	0	-3e-05	9e-05	-1e-05	-1e-05	0
1101	1e-05	-1e-05	-4e-05	0	-3e-05	9e-05	-1e-05	-1e-05	0
1102	1e-05	-1e-05	-4e-05	0	-3e-05	9e-05	-1e-05	-1e-05	0
1103	-1e-05	0	-1e-05	-1e-05	0	1e-05	0	-1e-05	0
1104	-1e-05	0	-1e-05	-1e-05	0	1e-05	0	-1e-05	0
1105	-1e-05	0	-1e-05	-1e-05	0	1e-05	0	-1e-05	0
1106	-1e-05	0	-1e-05	-1e-05	0	1e-05	0	-1e-05	0
1107	-1e-05	0	-1e-05	-1e-05	0	1e-05	0	-1e-05	0
1108	-1e-05	0	-1e-05	-1e-05	0	1e-05	0	-1e-05	0
1109	-1e-05	0	-1e-05	-1e-05	0	1e-05	0	-1e-05	0
1110	-1e-05	0	-1e-05	-1e-05	0	1e-05	0	-1e-05	0
1111	-1e-05	0	-1e-05	-1e-05	0	1e-05	0	-1e-05	0
1112	-1e-05	0	-1e-05	-1e-05	0	1e-05	0	-1e-05	0
1113	-1e-05	0	-1e-05	-1e-05	0	1e-05	0	-1e-05	0
1114	-1e-05	0	-1e-05	-1e-05	0	1e-05	0	-1e-05	0
1115	-1e-05	0	-1e-05	-1e-05	0	1e-05	0	-1e-05	0
1116	-1e-05	0	-1e-05	-1e-05	0	1e-05	0	-1e-05	0
1117	-1e-05	0	-1e-05	-1e-05	0	1e-05	0	-1e-05	0
1118	-1e-05	-2e-05	-2e-05	0	-5e-05	-0.00023	-5e-05	-1e-05	0
1119	-1e-05	-3e-05	-3e-05	-3e-05	-3e-05	4e-05	-3e-05	-3e-05	0
1120	-1e-05	-3e-05	-3e-05	-3e-05	-3e-05	4e-05	-3e-05	-3e-05	0
1121	-1e-05	-3e-05	-3e-05	-3e-05	-3e-05	4e-05	-3e-05	-3e-05	0
1122	-1e-05	-3e-05	-3e-05	-3e-05	-3e-05	4e-05	-3e-05	-3e-05	0
1123	-1e-05	-3e-05	-3e-05	-3e-05	-3e-05	4e-05	-3e-05	-3e-05	0
1124	-1e-05	-3e-05	-3e-05	-3e-05	-3e-05	4e-05	-3e-05	-3e-05	0
1125	-1e-05	-3e-05	-3e-05	-3e-05	-3e-05	4e-05	-3e-05	-3e-05	0
1126	-1e-05	-3e-05	-3e-05	-3e-05	-3e-05	4e-05	-3e-05	-3e-05	0
1127	-1e-05	-3e-05	-3e-05	-3e-05	-3e-05	4e-05	-3e-05	-3e-05	0
1128	-1e-05	-3e-05	-3e-05	-3e-05	-3e-05	4e-05	-3e-05	-3e-05	0
1129	-1e-05	-3e-05	-3e-05	-3e-05	-3e-05	4e-05	-3e-05	-3e-05	0
1130	-1e-05	-3e-05	-3e-05	-3e-05	-3e-05	4e-05	-3e-05	-3e-05	0
1131	-1e-05	-3e-05	-3e-05	-3e-05	-3e-05	4e-05	-3e-05	-3e-05	0
1132	-1e-05	-3e-05	-3e-05	-3e-05	-3e-05	4e-05	-3e-05	-3e-05	0
1133	-1e-05	-3e-05	-3e-05	-3e-05	-3e-05	4e-05	-3e-05	-3e-05	0
1134	-1e-05	-3e-05	-3e-05	-3e-05	-3e-05	4e-05	-3e-05	-3e-05	0
1135	-1e-05	-3e-05	-3e-05	-3e-05	-3e-05	4e-05	-3e-05	-3e-05	0
1138	-1e-05	-3e-05	-3e-05	-3e-05	-3e-05	4e-05	-3e-05	-3e-05	0
1141	-1e-05	-3e-05	-3e-05	-3e-05	-3e-05	4e-05	-3e-05	-3e-05	0
1142	1e-05	-1e-05	-1e-05	0	0	9e-05	2e-05	0	0
1144	1e-05	-1e-05	-1e-05	0	0	9e-05	2e-05	0	0
1145	1e-05	-1e-05	-1e-05	0	0	9e-05	2e-05	0	0
1146	1e-05	-1e-05	-1e-05	0	0	9e-05	2e-05	0	0
1147	1e-05	-1e-05	-1e-05	0	0	9e-05	2e-05	0	0
1149	1e-05	-1e-05	-1e-05	0	0	9e-05	2e-05	0	0
1150	1e-05	-1e-05	-1e-05	0	0	9e-05	2e-05	0	0
1151	1e-05	-1e-05	-1e-05	0	0	9e-05	2e-05	0	0
1152	1e-05	-1e-05	-1e-05	0	0	9e-05	2e-05	0	0
1153	1e-05	-1e-05	-1e-05	0	0	9e-05	2e-05	0	0
1154	1e-05	-2e-05	1e-05	0	2e-05	1e-05	3e-05	0	0
1155	1e-05	-2e-05	1e-05	0	2e-05	1e-05	3e-05	0	0
1156	1e-05	-2e-05	1e-05	0	2e-05	1e-05	3e-05	0	0
1157	1e-05	-2e-05	1e-05	0	2e-05	1e-05	3e-05	0	0
1158	1e-05	-2e-05	1e-05	0	2e-05	1e-05	3e-05	0	0
1159	1e-05	-2e-05	1e-05	0	2e-05	1e-05	3e-05	0	0
1160	1e-05	-2e-05	1e-05	0	2e-05	1e-05	3e-05	0	0
1161	1e-05	-2e-05	1e-05	0	2e-05	1e-05	3e-05	0	0
1162	1e-05	-2e-05	1e-05	0	2e-05	1e-05	3e-05	0	0
1163	0	-1e-05	-2e-05	0	3e-05	8e-05	1e-05	-2e-05	0
1164	0	-1e-05	-2e-05	0	3e-05	8e-05	1e-05	-2e-05	0
1165	0	-1e-05	-2e-05	0	3e-05	8e-05	1e-05	-2e-05	0
1166	0	-1e-05	-2e-05	0	3e-05	8e-05	1e-05	-2e-05	0
1167	0	-1e-05	-2e-05	0	3e-05	8e-05	1e-05	-2e-05	0
1168	0	-1e-05	-2e-05	0	3e-05	8e-05	1e-05	-2e-05	0
1169	0	-1e-05	-2e-05	0	3e-05	8e-05	1e-05	-2e-05	0
1170	0	-1e-05	-2e-05	0	3e-05	8e-05	1e-05	-2e-05	0
1171	0	-1e-05	-2e-05	0	3e-05	8e-05	1e-05	-2e-05	0
1172	0	-1e-05	-2e-05	0	3e-05	8e-05	1e-05	-2e-05	0
1173	0	-1e-05	-2e-05	0	3e-05	8e-05	1e-05	-2e-05	0
1174	0	-1e-05	-2e-05	0	3e-05	8e-05	1e-05	-2e-05	0
1175	0	-1e-05	-2e-05	0	3e-05	8e-05	1e-05	-2e-05	0
1176	0	-1e-05	-2e-05	0	3e-05	8e-05	1e-05	-2e-05	0
1177	0	-1e-05	-2e-05	0	3e-05	8e-05	1e-05	-2e-05	0
1178	-1e-05	2e-05	-2e-05	-2e-05	-2e-05	-9e-05	0	1e-05	0
1179	0	-3e-05	1e-05	-1e-05	0	6e-05	-3e-05	-2e-05	0
1180	0	-3e-05	1e-05	-1e-05	0	6e-05	-3e-05	-2e-05	0
1181	0	-3e-05	1e-05	-1e-05	0	6e-05	-3e-05	-2e-05	0
1182	0	-3e-05	1e-05	-1e-05	0	6e-05	-3e-05	-2e-05	0
1183	0	-3e-05	1e-05	-1e-05	0	6e-05	-3e-05	-2e-05	0
1184	0	-3e-05	1e-05	-1e-05	0	6e-05	-3e-05	-2e-05	0
1185	0	-3e-05	1e-05	-1e-05	0	6e-05	-3e-05	-2e-05	0
1186	0	-3e-05	1e-05	-1e-05	0	6e-05	-3e-05	-2e-05	0
1188	0	-3e-05	1e-05	-1e-05	0	6e-05	-3e-05	-2e-05	0
1189	0	-3e-05	1e-05	-1e-05	0	6e-05	-3e-05	-2e-05	0
1190	0	-3e-05	1e-05	-1e-05	0	6e-05	-3e-05	-2e-05	0
1191	0	-3e-05	1e-05	-1e-05	0	6e-05	-3e-05	-2e-05	0
1192	0	-3e-05	1e-05	-1e-05	0	6e-05	-3e-05	-2e-05	0
1193	0	-3e-05	1e-05	-1e-05	0	6e-05	-3e-05	-2e-05	0
1194	0	-3e-05	1e-05	-1e-05	0	6e-05	-3e-05	-2e-05	0
1195	0	-3e-05	1e-05	-1e-05	0	6e-05	-3e-05	-2e-05	0
1196	0	-3e-05	1e-05	-1e-05	0	6e-05	-3e-05	-2e-05	0
1197	0	-3e-05	1e-05	-1e-05	0	6e-05	-3e-05	-2e-05	0
1198	0	-3e-05	1e-05	-1e-05	0	6e-05	-3e-05	-2e-05	0
1199	0	-3e-05	1e-05	-1e-05	0	6e-05	-3e-05	-2e-05	0
1200	0	0	-2e-05	-1e-05	5e-05	0.00019	2e-05	-1e-05	0
1201	0	0	-2e-05	-1e-05	5e-05	0.00019	2e-05	-1e-05	0
1202	0	1e-05	-1e-05	-3e-05	-1e-05	0.00037	3e-05	-1e-05	0
1203	0	1e-05	-1e-05	-3e-05	-1e-05	0.00037	3e-05	-1e-05	0
1204	0	1e-05	-1e-05	-3e-05	-1e-05	0.00037	3e-05	-1e-05	0
1205	0	1e-05	-1e-05	-3e-05	-1e-05	0.00037	3e-05	-1e-05	0
1206	0	1e-05	-1e-05	-3e-05	-1e-05	0.00037	3e-05	-1e-05	0
1207	0	1e-05	-1e-05	-3e-05	-1e-05	0.00037	3e-05	-1e-05	0
1208	0	1e-05	-1e-05	-3e-05	-1e-05	0.00037	3e-05	-1e-05	0
1209	0	1e-05	-1e-05	-3e-05	-1e-05	0.00037	3e-05	-1e-05	0
1210	0	1e-05	-1e-05	-3e-05	-1e-05	0.00037	3e-05	-1e-05	0
1211	0	1e-05	-1e-05	-3e-05	-1e-05	0.00037	3e-05	-1e-05	0
1212	0	1e-05	-1e-05	-3e-05	-1e-05	0.00037	3e-05	-1e-05	0
1213	0	1e-05	-1e-05	-3e-05	-1e-05	0.00037	3e-05	-1e-05	0
1214	-1e-05	-1e-05	-2e-05	-2e-05	-2e-05	-4e-05	-1e-05	-1e-05	0
1215	-1e-05	-1e-05	-2e-05	-2e-05	-2e-05	-4e-05	-1e-05	-1e-05	0
1216	-1e-05	-1e-05	-2e-05	-2e-05	-2e-05	-4e-05	-1e-05	-1e-05	0
1217	-1e-05	-1e-05	-2e-05	-2e-05	-2e-05	-4e-05	-1e-05	-1e-05	0
1218	-1e-05	-1e-05	-2e-05	-2e-05	-2e-05	-4e-05	-1e-05	-1e-05	0
1219	-1e-05	-1e-05	-2e-05	-2e-05	-2e-05	-4e-05	-1e-05	-1e-05	0
1220	-1e-05	-1e-05	-2e-05	-2e-05	-2e-05	-4e-05	-1e-05	-1e-05	0
1221	-1e-05	-1e-05	-2e-05	-2e-05	-2e-05	-4e-05	-1e-05	-1e-05	0
1222	-1e-05	-1e-05	-2e-05	-2e-05	-2e-05	-4e-05	-1e-05	-1e-05	0
1223	-2e-05	-2e-05	0	-1e-05	2e-05	0.00013	2e-05	0	0
1224	-2e-05	-2e-05	0	-1e-05	2e-05	0.00013	2e-05	0	0
1225	-2e-05	-2e-05	0	-1e-05	2e-05	0.00013	2e-05	0	0
1226	-2e-05	-2e-05	0	-1e-05	2e-05	0.00013	2e-05	0	0
1227	-2e-05	-2e-05	0	-1e-05	2e-05	0.00013	2e-05	0	0
1228	-2e-05	-2e-05	0	-1e-05	2e-05	0.00013	2e-05	0	0
1229	-2e-05	-2e-05	0	-1e-05	2e-05	0.00013	2e-05	0	0
1230	-2e-05	-2e-05	0	-1e-05	2e-05	0.00013	2e-05	0	0
1231	-2e-05	-2e-05	0	-1e-05	2e-05	0.00013	2e-05	0	0
1232	-2e-05	-2e-05	0	-1e-05	2e-05	0.00013	2e-05	0	0
1233	-2e-05	-2e-05	0	-1e-05	2e-05	0.00013	2e-05	0	0
1234	-2e-05	-2e-05	0	-1e-05	2e-05	0.00013	2e-05	0	0
1235	-2e-05	-2e-05	0	-1e-05	2e-05	0.00013	2e-05	0	0
1236	-2e-05	-2e-05	0	-1e-05	2e-05	0.00013	2e-05	0	0
1238	0	-2e-05	-3e-05	0	-2e-05	-2e-05	-4e-05	-3e-05	0
1239	-2e-05	-1e-05	-2e-05	-1e-05	-3e-05	-0.00024	-2e-05	0	0
1240	-2e-05	-1e-05	-2e-05	-1e-05	-3e-05	-0.00024	-2e-05	0	0
1241	-2e-05	-1e-05	-2e-05	-1e-05	-3e-05	-0.00024	-2e-05	0	0
1242	-2e-05	-1e-05	-2e-05	-1e-05	-3e-05	-0.00024	-2e-05	0	0
1243	-2e-05	-1e-05	-2e-05	-1e-05	-3e-05	-0.00024	-2e-05	0	0
1244	-2e-05	-1e-05	-2e-05	-1e-05	-3e-05	-0.00024	-2e-05	0	0
1245	-2e-05	-1e-05	-2e-05	-1e-05	-3e-05	-0.00024	-2e-05	0	0
1246	-2e-05	-1e-05	-2e-05	-1e-05	-3e-05	-0.00024	-2e-05	0	0
1247	-2e-05	-1e-05	-2e-05	-1e-05	-3e-05	-0.00024	-2e-05	0	0
1248	-2e-05	-1e-05	-2e-05	-1e-05	-3e-05	-0.00024	-2e-05	0	0
1249	-2e-05	-1e-05	-2e-05	-1e-05	-3e-05	-0.00024	-2e-05	0	0
1250	-2e-05	-1e-05	-2e-05	-1e-05	-3e-05	-0.00024	-2e-05	0	0
1251	-2e-05	-1e-05	-2e-05	-1e-05	-3e-05	-0.00024	-2e-05	0	0
1252	-2e-05	-1e-05	-2e-05	-1e-05	-3e-05	-0.00024	-2e-05	0	0
1253	-2e-05	-1e-05	-2e-05	-1e-05	-3e-05	-0.00024	-2e-05	0	0
1254	-2e-05	-1e-05	-2e-05	-1e-05	-3e-05	-0.00024	-2e-05	0	0
1255	-2e-05	-1e-05	-2e-05	-1e-05	-3e-05	-0.00024	-2e-05	0	0
1256	-2e-05	-1e-05	-2e-05	-1e-05	-3e-05	-0.00024	-2e-05	0	0
1257	-2e-05	-1e-05	-2e-05	-1e-05	-3e-05	-0.00024	-2e-05	0	0
1258	-2e-05	-1e-05	-2e-05	-1e-05	-3e-05	-0.00024	-2e-05	0	0
1259	-2e-05	-1e-05	-2e-05	-1e-05	-3e-05	-0.00024	-2e-05	0	0
1260	-1e-05	-2e-05	1e-05	-3e-05	-4e-05	-2e-05	-1e-05	0	0
1261	-1e-05	-2e-05	1e-05	-3e-05	-4e-05	-2e-05	-1e-05	0	0
1262	-1e-05	0	-1e-05	0	7e-05	0.0002	-1e-05	-1e-05	0
1263	-1e-05	0	-1e-05	0	7e-05	0.0002	-1e-05	-1e-05	0
1264	-1e-05	0	-1e-05	0	7e-05	0.0002	-1e-05	-1e-05	0
1265	-1e-05	0	-1e-05	0	7e-05	0.0002	-1e-05	-1e-05	0
1266	-1e-05	0	-1e-05	0	7e-05	0.0002	-1e-05	-1e-05	0
1267	-1e-05	0	-1e-05	0	7e-05	0.0002	-1e-05	-1e-05	0
1268	-1e-05	0	-1e-05	0	7e-05	0.0002	-1e-05	-1e-05	0
1269	-1e-05	0	-1e-05	0	7e-05	0.0002	-1e-05	-1e-05	0
1270	-1e-05	0	-1e-05	0	7e-05	0.0002	-1e-05	-1e-05	0
1271	-1e-05	0	-1e-05	0	7e-05	0.0002	-1e-05	-1e-05	0
1272	-1e-05	0	-1e-05	0	7e-05	0.0002	-1e-05	-1e-05	0
1273	-1e-05	0	-1e-05	0	7e-05	0.0002	-1e-05	-1e-05	0
1274	-1e-05	-3e-05	-3e-05	-2e-05	0	-0.0001	-2e-05	-2e-05	0
1275	-1e-05	-3e-05	-3e-05	-2e-05	0	-0.0001	-2e-05	-2e-05	0
1276	-1e-05	-3e-05	-3e-05	-2e-05	0	-0.0001	-2e-05	-2e-05	0
1277	-1e-05	-3e-05	-3e-05	-2e-05	0	-0.0001	-2e-05	-2e-05	0
1278	-1e-05	-3e-05	-3e-05	-2e-05	0	-0.0001	-2e-05	-2e-05	0
1279	-1e-05	-3e-05	-3e-05	-2e-05	0	-0.0001	-2e-05	-2e-05	0
1280	-1e-05	-3e-05	-3e-05	-2e-05	0	-0.0001	-2e-05	-2e-05	0
1281	-1e-05	-3e-05	-3e-05	-2e-05	0	-0.0001	-2e-05	-2e-05	0
1282	-1e-05	-3e-05	-3e-05	-2e-05	0	-0.0001	-2e-05	-2e-05	0
1283	-1e-05	2e-05	1e-05	-1e-05	-5e-05	-0.00015	-3e-05	-2e-05	0
1284	-1e-05	2e-05	1e-05	-1e-05	-5e-05	-0.00015	-3e-05	-2e-05	0
1285	-1e-05	2e-05	1e-05	-1e-05	-5e-05	-0.00015	-3e-05	-2e-05	0
1286	-1e-05	2e-05	1e-05	-1e-05	-5e-05	-0.00015	-3e-05	-2e-05	0
1288	-1e-05	2e-05	1e-05	-1e-05	-5e-05	-0.00015	-3e-05	-2e-05	0
1289	-1e-05	2e-05	1e-05	-1e-05	-5e-05	-0.00015	-3e-05	-2e-05	0
1290	-1e-05	2e-05	1e-05	-1e-05	-5e-05	-0.00015	-3e-05	-2e-05	0
1291	-1e-05	2e-05	1e-05	-1e-05	-5e-05	-0.00015	-3e-05	-2e-05	0
1292	-1e-05	2e-05	1e-05	-1e-05	-5e-05	-0.00015	-3e-05	-2e-05	0
1293	-1e-05	2e-05	1e-05	-1e-05	-5e-05	-0.00015	-3e-05	-2e-05	0
1294	-1e-05	2e-05	1e-05	-1e-05	-5e-05	-0.00015	-3e-05	-2e-05	0
1295	-1e-05	2e-05	1e-05	-1e-05	-5e-05	-0.00015	-3e-05	-2e-05	0
1296	-1e-05	2e-05	1e-05	-1e-05	-5e-05	-0.00015	-3e-05	-2e-05	0
1297	-1e-05	2e-05	1e-05	-1e-05	-5e-05	-0.00015	-3e-05	-2e-05	0
1298	0	1e-05	-1e-05	1e-05	6e-05	0.00023	0	-1e-05	0
1299	-3e-05	-2e-05	-3e-05	-3e-05	-1e-05	-2e-05	-2e-05	0	0
1300	-3e-05	-2e-05	-3e-05	-3e-05	-1e-05	-2e-05	-2e-05	0	0
1301	-3e-05	-2e-05	-3e-05	-3e-05	-1e-05	-2e-05	-2e-05	0	0
1302	-3e-05	-2e-05	-3e-05	-3e-05	-1e-05	-2e-05	-2e-05	0	0
1303	-3e-05	-2e-05	-3e-05	-3e-05	-1e-05	-2e-05	-2e-05	0	0
1304	-3e-05	-2e-05	-3e-05	-3e-05	-1e-05	-2e-05	-2e-05	0	0
1305	-3e-05	-2e-05	-3e-05	-3e-05	-1e-05	-2e-05	-2e-05	0	0
1306	-3e-05	-2e-05	-3e-05	-3e-05	-1e-05	-2e-05	-2e-05	0	0
1307	-3e-05	-2e-05	-3e-05	-3e-05	-1e-05	-2e-05	-2e-05	0	0
1308	-3e-05	-2e-05	-3e-05	-3e-05	-1e-05	-2e-05	-2e-05	0	0
1309	-3e-05	-2e-05	-3e-05	-3e-05	-1e-05	-2e-05	-2e-05	0	0
1310	-3e-05	-2e-05	-3e-05	-3e-05	-1e-05	-2e-05	-2e-05	0	0
1311	-3e-05	-2e-05	-3e-05	-3e-05	-1e-05	-2e-05	-2e-05	0	0
1312	-3e-05	-2e-05	-3e-05	-3e-05	-1e-05	-2e-05	-2e-05	0	0
1313	-3e-05	-2e-05	-3e-05	-3e-05	-1e-05	-2e-05	-2e-05	0	0
1314	-3e-05	-2e-05	-3e-05	-3e-05	-1e-05	-2e-05	-2e-05	0	0
1315	-3e-05	-2e-05	-3e-05	-3e-05	-1e-05	-2e-05	-2e-05	0	0
1316	-3e-05	-2e-05	-3e-05	-3e-05	-1e-05	-2e-05	-2e-05	0	0
1317	-3e-05	-2e-05	-3e-05	-3e-05	-1e-05	-2e-05	-2e-05	0	0
1318	-3e-05	-2e-05	-3e-05	-3e-05	-1e-05	-2e-05	-2e-05	0	0
1319	-3e-05	-2e-05	-3e-05	-3e-05	-1e-05	-2e-05	-2e-05	0	0
1320	-2e-05	-2e-05	1e-05	-1e-05	-2e-05	4e-05	0	-1e-05	0
1321	-2e-05	-2e-05	1e-05	-1e-05	-2e-05	4e-05	0	-1e-05	0
1322	-1e-05	-2e-05	-1e-05	-2e-05	-1e-05	-1e-05	-2e-05	-1e-05	0
1323	-1e-05	-2e-05	-1e-05	-2e-05	-1e-05	-1e-05	-2e-05	-1e-05	0
1324	-1e-05	-2e-05	-1e-05	-2e-05	-1e-05	-1e-05	-2e-05	-1e-05	0
1325	-1e-05	-2e-05	-1e-05	-2e-05	-1e-05	-1e-05	-2e-05	-1e-05	0
1326	-1e-05	-2e-05	-1e-05	-2e-05	-1e-05	-1e-05	-2e-05	-1e-05	0
1327	-1e-05	-2e-05	-1e-05	-2e-05	-1e-05	-1e-05	-2e-05	-1e-05	0
1328	-1e-05	-2e-05	-1e-05	-2e-05	-1e-05	-1e-05	-2e-05	-1e-05	0
1329	-1e-05	-2e-05	-1e-05	-2e-05	-1e-05	-1e-05	-2e-05	-1e-05	0
1330	-1e-05	-2e-05	-1e-05	-2e-05	-1e-05	-1e-05	-2e-05	-1e-05	0
1331	-1e-05	-2e-05	-1e-05	-2e-05	-1e-05	-1e-05	-2e-05	-1e-05	0
1332	-1e-05	-2e-05	-1e-05	-2e-05	-1e-05	-1e-05	-2e-05	-1e-05	0
1333	-1e-05	-2e-05	-1e-05	-2e-05	-1e-05	-1e-05	-2e-05	-1e-05	0
1334	-2e-05	-1e-05	-2e-05	-2e-05	-4e-05	-0.00015	0	0	0
1335	-2e-05	-1e-05	-2e-05	-2e-05	-4e-05	-0.00015	0	0	0
1336	-2e-05	-1e-05	-2e-05	-2e-05	-4e-05	-0.00015	0	0	0
1338	-2e-05	-1e-05	-2e-05	-2e-05	-4e-05	-0.00015	0	0	0
1339	-2e-05	-1e-05	-2e-05	-2e-05	-4e-05	-0.00015	0	0	0
1340	-2e-05	-1e-05	-2e-05	-2e-05	-4e-05	-0.00015	0	0	0
1341	-2e-05	-1e-05	-2e-05	-2e-05	-4e-05	-0.00015	0	0	0
1342	-2e-05	-1e-05	-2e-05	-2e-05	-4e-05	-0.00015	0	0	0
1343	-2e-05	-1e-05	-2e-05	-2e-05	-4e-05	-0.00015	0	0	0
1344	-2e-05	-1e-05	-2e-05	-2e-05	-4e-05	-0.00015	0	0	0
1345	-2e-05	-1e-05	-2e-05	-2e-05	-4e-05	-0.00015	0	0	0
1346	-2e-05	-1e-05	-2e-05	-2e-05	-4e-05	-0.00015	0	0	0
1347	-2e-05	-1e-05	-2e-05	-2e-05	-4e-05	-0.00015	0	0	0
1348	-2e-05	-1e-05	-2e-05	-2e-05	-4e-05	-0.00015	0	0	0
1349	-2e-05	-1e-05	-2e-05	-2e-05	-4e-05	-0.00015	0	0	0
1350	-1e-05	1e-05	0	0	-4e-05	-0.00019	-4e-05	-1e-05	0
1351	-1e-05	1e-05	0	0	-4e-05	-0.00019	-4e-05	-1e-05	0
1352	-1e-05	1e-05	0	0	-4e-05	-0.00019	-4e-05	-1e-05	0
1353	-1e-05	1e-05	0	0	-4e-05	-0.00019	-4e-05	-1e-05	0
1354	-1e-05	1e-05	0	0	-4e-05	-0.00019	-4e-05	-1e-05	0
1355	-1e-05	1e-05	0	0	-4e-05	-0.00019	-4e-05	-1e-05	0
1356	-1e-05	1e-05	0	0	-4e-05	-0.00019	-4e-05	-1e-05	0
1357	-1e-05	1e-05	0	0	-4e-05	-0.00019	-4e-05	-1e-05	0
1358	-2e-05	-1e-05	-1e-05	-1e-05	-1e-05	4e-05	0	-2e-05	0
1359	0	-1e-05	-1e-05	-2e-05	-5e-05	5e-05	1e-05	-1e-05	0
1360	0	-1e-05	-1e-05	-2e-05	-5e-05	5e-05	1e-05	-1e-05	0
1361	0	-1e-05	-1e-05	-2e-05	-5e-05	5e-05	1e-05	-1e-05	0
1362	0	-1e-05	-1e-05	-2e-05	-5e-05	5e-05	1e-05	-1e-05	0
1363	0	-1e-05	-1e-05	-2e-05	-5e-05	5e-05	1e-05	-1e-05	0
1364	0	-1e-05	-1e-05	-2e-05	-5e-05	5e-05	1e-05	-1e-05	0
1365	0	-1e-05	-1e-05	-2e-05	-5e-05	5e-05	1e-05	-1e-05	0
1366	0	-1e-05	-1e-05	-2e-05	-5e-05	5e-05	1e-05	-1e-05	0
1367	0	-1e-05	-1e-05	-2e-05	-5e-05	5e-05	1e-05	-1e-05	0
1368	0	-1e-05	-1e-05	-2e-05	-5e-05	5e-05	1e-05	-1e-05	0
1369	0	-1e-05	-1e-05	-2e-05	-5e-05	5e-05	1e-05	-1e-05	0
1370	0	-1e-05	-1e-05	-2e-05	-5e-05	5e-05	1e-05	-1e-05	0
1371	0	-1e-05	-1e-05	-2e-05	-5e-05	5e-05	1e-05	-1e-05	0
1372	0	-1e-05	-1e-05	-2e-05	-5e-05	5e-05	1e-05	-1e-05	0
1373	0	-1e-05	-1e-05	-2e-05	-5e-05	5e-05	1e-05	-1e-05	0
1374	0	-1e-05	-1e-05	-2e-05	-5e-05	5e-05	1e-05	-1e-05	0
1375	0	-1e-05	-1e-05	-2e-05	-5e-05	5e-05	1e-05	-1e-05	0
1376	0	-1e-05	-1e-05	-2e-05	-5e-05	5e-05	1e-05	-1e-05	0
1377	0	-1e-05	-1e-05	-2e-05	-5e-05	5e-05	1e-05	-1e-05	0
1378	0	-1e-05	-1e-05	-2e-05	-5e-05	5e-05	1e-05	-1e-05	0
1379	0	-1e-05	-1e-05	-2e-05	-5e-05	5e-05	1e-05	-1e-05	0
1380	-1e-05	-3e-05	-2e-05	-1e-05	-2e-05	-2e-05	0	0	0
1381	-1e-05	-3e-05	-2e-05	-1e-05	-2e-05	-2e-05	0	0	0
1382	-1e-05	-2e-05	1e-05	-1e-05	-2e-05	-4e-05	-2e-05	0	0
1383	-1e-05	-2e-05	1e-05	-1e-05	-2e-05	-4e-05	-2e-05	0	0
1384	-1e-05	-2e-05	1e-05	-1e-05	-2e-05	-4e-05	-2e-05	0	0
1385	-1e-05	-2e-05	1e-05	-1e-05	-2e-05	-4e-05	-2e-05	0	0
1386	-1e-05	-2e-05	1e-05	-1e-05	-2e-05	-4e-05	-2e-05	0	0
1388	-1e-05	-2e-05	1e-05	-1e-05	-2e-05	-4e-05	-2e-05	0	0
1389	-1e-05	-2e-05	1e-05	-1e-05	-2e-05	-4e-05	-2e-05	0	0
1390	-1e-05	-2e-05	1e-05	-1e-05	-2e-05	-4e-05	-2e-05	0	0
1391	-1e-05	-2e-05	1e-05	-1e-05	-2e-05	-4e-05	-2e-05	0	0
1392	-1e-05	-2e-05	1e-05	-1e-05	-2e-05	-4e-05	-2e-05	0	0
1393	-1e-05	-2e-05	1e-05	-1e-05	-2e-05	-4e-05	-2e-05	0	0
1394	1e-05	-1e-05	-1e-05	-1e-05	0	0.00012	0	-1e-05	0
1395	1e-05	-1e-05	-1e-05	-1e-05	0	0.00012	0	-1e-05	0
1396	1e-05	-1e-05	-1e-05	-1e-05	0	0.00012	0	-1e-05	0
1397	1e-05	-1e-05	-1e-05	-1e-05	0	0.00012	0	-1e-05	0
1398	1e-05	-1e-05	-1e-05	-1e-05	0	0.00012	0	-1e-05	0
1399	1e-05	-1e-05	-1e-05	-1e-05	0	0.00012	0	-1e-05	0
1400	1e-05	-1e-05	-1e-05	-1e-05	0	0.00012	0	-1e-05	0
1401	1e-05	-1e-05	-1e-05	-1e-05	0	0.00012	0	-1e-05	0
1402	1e-05	-1e-05	-1e-05	-1e-05	0	0.00012	0	-1e-05	0
1403	-2e-05	-1e-05	-2e-05	0	-6e-05	-0.00023	-1e-05	-1e-05	0
1404	-2e-05	-1e-05	-2e-05	0	-6e-05	-0.00023	-1e-05	-1e-05	0
1405	-2e-05	-1e-05	-2e-05	0	-6e-05	-0.00023	-1e-05	-1e-05	0
1406	-2e-05	-1e-05	-2e-05	0	-6e-05	-0.00023	-1e-05	-1e-05	0
1407	-2e-05	-1e-05	-2e-05	0	-6e-05	-0.00023	-1e-05	-1e-05	0
1408	-2e-05	-1e-05	-2e-05	0	-6e-05	-0.00023	-1e-05	-1e-05	0
1409	-2e-05	-1e-05	-2e-05	0	-6e-05	-0.00023	-1e-05	-1e-05	0
1410	-2e-05	-1e-05	-2e-05	0	-6e-05	-0.00023	-1e-05	-1e-05	0
1411	-2e-05	-1e-05	-2e-05	0	-6e-05	-0.00023	-1e-05	-1e-05	0
1412	-2e-05	-1e-05	-2e-05	0	-6e-05	-0.00023	-1e-05	-1e-05	0
1413	-2e-05	-1e-05	-2e-05	0	-6e-05	-0.00023	-1e-05	-1e-05	0
1414	-2e-05	-1e-05	-2e-05	0	-6e-05	-0.00023	-1e-05	-1e-05	0
1415	-2e-05	-1e-05	-2e-05	0	-6e-05	-0.00023	-1e-05	-1e-05	0
1416	-2e-05	-1e-05	-2e-05	0	-6e-05	-0.00023	-1e-05	-1e-05	0
1417	-2e-05	-1e-05	-2e-05	0	-6e-05	-0.00023	-1e-05	-1e-05	0
1418	-2e-05	-2e-05	2e-05	1e-05	-1e-05	-2e-05	0	-3e-05	0
1419	1e-05	1e-05	-3e-05	0	0	-8e-05	-1e-05	-1e-05	0
1420	1e-05	1e-05	-3e-05	0	0	-8e-05	-1e-05	-1e-05	0
1421	1e-05	1e-05	-3e-05	0	0	-8e-05	-1e-05	-1e-05	0
1422	1e-05	1e-05	-3e-05	0	0	-8e-05	-1e-05	-1e-05	0
1423	1e-05	1e-05	-3e-05	0	0	-8e-05	-1e-05	-1e-05	0
1424	1e-05	1e-05	-3e-05	0	0	-8e-05	-1e-05	-1e-05	0
1425	1e-05	1e-05	-3e-05	0	0	-8e-05	-1e-05	-1e-05	0
1426	1e-05	1e-05	-3e-05	0	0	-8e-05	-1e-05	-1e-05	0
1427	1e-05	1e-05	-3e-05	0	0	-8e-05	-1e-05	-1e-05	0
1428	1e-05	1e-05	-3e-05	0	0	-8e-05	-1e-05	-1e-05	0
1429	1e-05	1e-05	-3e-05	0	0	-8e-05	-1e-05	-1e-05	0
1430	1e-05	1e-05	-3e-05	0	0	-8e-05	-1e-05	-1e-05	0
1431	1e-05	1e-05	-3e-05	0	0	-8e-05	-1e-05	-1e-05	0
1432	1e-05	1e-05	-3e-05	0	0	-8e-05	-1e-05	-1e-05	0
1433	1e-05	1e-05	-3e-05	0	0	-8e-05	-1e-05	-1e-05	0
1434	1e-05	1e-05	-3e-05	0	0	-8e-05	-1e-05	-1e-05	0
1435	1e-05	1e-05	-3e-05	0	0	-8e-05	-1e-05	-1e-05	0
1436	1e-05	1e-05	-3e-05	0	0	-8e-05	-1e-05	-1e-05	0
1438	1e-05	1e-05	-3e-05	0	0	-8e-05	-1e-05	-1e-05	0
1439	1e-05	1e-05	-3e-05	0	0	-8e-05	-1e-05	-1e-05	0
1440	-2e-05	-1e-05	0	0	-2e-05	-5e-05	-1e-05	-2e-05	0
1441	-2e-05	-1e-05	0	0	-2e-05	-5e-05	-1e-05	-2e-05	0
1442	-1e-05	-1e-05	-2e-05	1e-05	0	4e-05	1e-05	0	0
1443	-1e-05	-1e-05	-2e-05	1e-05	0	4e-05	1e-05	0	0
1444	-1e-05	-1e-05	-2e-05	1e-05	0	4e-05	1e-05	0	0
1445	-1e-05	-1e-05	-2e-05	1e-05	0	4e-05	1e-05	0	0
1446	-1e-05	-1e-05	-2e-05	1e-05	0	4e-05	1e-05	0	0
1447	-1e-05	-1e-05	-2e-05	1e-05	0	4e-05	1e-05	0	0
1448	-1e-05	-1e-05	-2e-05	1e-05	0	4e-05	1e-05	0	0
1449	-1e-05	-1e-05	-2e-05	1e-05	0	4e-05	1e-05	0	0
1450	-1e-05	-1e-05	-2e-05	1e-05	0	4e-05	1e-05	0	0
1451	-1e-05	-1e-05	-2e-05	1e-05	0	4e-05	1e-05	0	0
1452	-1e-05	-1e-05	-2e-05	1e-05	0	4e-05	1e-05	0	0
1453	-1e-05	-1e-05	-2e-05	1e-05	0	4e-05	1e-05	0	0
1454	-2e-05	-2e-05	-2e-05	-4e-05	-3e-05	-4e-05	-1e-05	-1e-05	0
1455	-2e-05	-2e-05	-2e-05	-4e-05	-3e-05	-4e-05	-1e-05	-1e-05	0
1456	-2e-05	-2e-05	-2e-05	-4e-05	-3e-05	-4e-05	-1e-05	-1e-05	0
1457	-2e-05	-2e-05	-2e-05	-4e-05	-3e-05	-4e-05	-1e-05	-1e-05	0
1458	-2e-05	-2e-05	-2e-05	-4e-05	-3e-05	-4e-05	-1e-05	-1e-05	0
1459	-2e-05	-2e-05	-2e-05	-4e-05	-3e-05	-4e-05	-1e-05	-1e-05	0
1460	-2e-05	-2e-05	-2e-05	-4e-05	-3e-05	-4e-05	-1e-05	-1e-05	0
1461	-2e-05	-2e-05	-2e-05	-4e-05	-3e-05	-4e-05	-1e-05	-1e-05	0
1462	-2e-05	-2e-05	-2e-05	-4e-05	-3e-05	-4e-05	-1e-05	-1e-05	0
1463	-1e-05	-2e-05	-4e-05	-2e-05	1e-05	0.00011	-1e-05	-1e-05	0
1464	-1e-05	-2e-05	-4e-05	-2e-05	1e-05	0.00011	-1e-05	-1e-05	0
1465	-1e-05	-2e-05	-4e-05	-2e-05	1e-05	0.00011	-1e-05	-1e-05	0
1466	-1e-05	-2e-05	-4e-05	-2e-05	1e-05	0.00011	-1e-05	-1e-05	0
1467	-1e-05	-2e-05	-4e-05	-2e-05	1e-05	0.00011	-1e-05	-1e-05	0
1468	-1e-05	-2e-05	-4e-05	-2e-05	1e-05	0.00011	-1e-05	-1e-05	0
1469	-1e-05	-2e-05	-4e-05	-2e-05	1e-05	0.00011	-1e-05	-1e-05	0
1470	-1e-05	-2e-05	-4e-05	-2e-05	1e-05	0.00011	-1e-05	-1e-05	0
1471	-1e-05	-2e-05	-4e-05	-2e-05	1e-05	0.00011	-1e-05	-1e-05	0
1472	-1e-05	-2e-05	-4e-05	-2e-05	1e-05	0.00011	-1e-05	-1e-05	0
1473	-1e-05	-2e-05	-4e-05	-2e-05	1e-05	0.00011	-1e-05	-1e-05	0
1474	-1e-05	-2e-05	-4e-05	-2e-05	1e-05	0.00011	-1e-05	-1e-05	0
1475	-1e-05	-2e-05	-4e-05	-2e-05	1e-05	0.00011	-1e-05	-1e-05	0
1476	-1e-05	-2e-05	-4e-05	-2e-05	1e-05	0.00011	-1e-05	-1e-05	0
1477	-2e-05	1e-05	-1e-05	1e-05	3e-05	8e-05	-3e-05	-2e-05	0
1478	1e-05	1e-05	1e-05	1e-05	-5e-05	-0.00023	-2e-05	1e-05	0
1479	0	-1e-05	0	-1e-05	0	0.00019	4e-05	2e-05	0
1480	0	-1e-05	0	-1e-05	0	0.00019	4e-05	2e-05	0
1481	0	-1e-05	0	-1e-05	0	0.00019	4e-05	2e-05	0
1482	0	-1e-05	0	-1e-05	0	0.00019	4e-05	2e-05	0
1483	0	-1e-05	0	-1e-05	0	0.00019	4e-05	2e-05	0
1484	0	-1e-05	0	-1e-05	0	0.00019	4e-05	2e-05	0
1485	0	-1e-05	0	-1e-05	0	0.00019	4e-05	2e-05	0
1486	0	-1e-05	0	-1e-05	0	0.00019	4e-05	2e-05	0
1488	0	-1e-05	0	-1e-05	0	0.00019	4e-05	2e-05	0
1489	0	-1e-05	0	-1e-05	0	0.00019	4e-05	2e-05	0
1490	0	-1e-05	0	-1e-05	0	0.00019	4e-05	2e-05	0
1491	0	-1e-05	0	-1e-05	0	0.00019	4e-05	2e-05	0
1492	0	-1e-05	0	-1e-05	0	0.00019	4e-05	2e-05	0
1493	0	-1e-05	0	-1e-05	0	0.00019	4e-05	2e-05	0
1494	0	-1e-05	0	-1e-05	0	0.00019	4e-05	2e-05	0
1495	0	-1e-05	0	-1e-05	0	0.00019	4e-05	2e-05	0
1496	0	-1e-05	0	-1e-05	0	0.00019	4e-05	2e-05	0
1497	0	-1e-05	0	-1e-05	0	0.00019	4e-05	2e-05	0
1498	0	-1e-05	0	-1e-05	0	0.00019	4e-05	2e-05	0
1499	0	-1e-05	0	-1e-05	0	0.00019	4e-05	2e-05	0
1500	0	-1e-05	-3e-05	-4e-05	1e-05	2e-05	0	0	0
1501	0	-1e-05	-3e-05	-4e-05	1e-05	2e-05	0	0	0
1502	-1e-05	-1e-05	1e-05	1e-05	-2e-05	-8e-05	0	-3e-05	0
1503	-1e-05	-1e-05	1e-05	1e-05	-2e-05	-8e-05	0	-3e-05	0
1504	-1e-05	-1e-05	1e-05	1e-05	-2e-05	-8e-05	0	-3e-05	0
1505	-1e-05	-1e-05	1e-05	1e-05	-2e-05	-8e-05	0	-3e-05	0
1506	-1e-05	-1e-05	1e-05	1e-05	-2e-05	-8e-05	0	-3e-05	0
1507	-1e-05	-1e-05	1e-05	1e-05	-2e-05	-8e-05	0	-3e-05	0
1508	-1e-05	-1e-05	1e-05	1e-05	-2e-05	-8e-05	0	-3e-05	0
1509	-1e-05	-1e-05	1e-05	1e-05	-2e-05	-8e-05	0	-3e-05	0
1510	-1e-05	-1e-05	1e-05	1e-05	-2e-05	-8e-05	0	-3e-05	0
1511	-1e-05	-1e-05	1e-05	1e-05	-2e-05	-8e-05	0	-3e-05	0
1512	-1e-05	-1e-05	1e-05	1e-05	-2e-05	-8e-05	0	-3e-05	0
1514	-1e-05	-1e-05	1e-05	1e-05	-2e-05	-8e-05	0	-3e-05	0
1515	0	0	-1e-05	1e-05	0	0.00016	0	0	0
1516	0	0	-1e-05	1e-05	0	0.00016	0	0	0
1517	0	0	-1e-05	1e-05	0	0.00016	0	0	0
1518	0	0	-1e-05	1e-05	0	0.00016	0	0	0
1519	0	0	-1e-05	1e-05	0	0.00016	0	0	0
1520	0	0	-1e-05	1e-05	0	0.00016	0	0	0
1521	0	0	-1e-05	1e-05	0	0.00016	0	0	0
1522	0	0	-1e-05	1e-05	0	0.00016	0	0	0
1523	0	0	-1e-05	1e-05	0	0.00016	0	0	0
1524	1e-05	-1e-05	-1e-05	-3e-05	-1e-05	-9e-05	-1e-05	-1e-05	0
1525	1e-05	-1e-05	-1e-05	-3e-05	-1e-05	-9e-05	-1e-05	-1e-05	0
1526	1e-05	-1e-05	-1e-05	-3e-05	-1e-05	-9e-05	-1e-05	-1e-05	0
1527	1e-05	-1e-05	-1e-05	-3e-05	-1e-05	-9e-05	-1e-05	-1e-05	0
1528	1e-05	-1e-05	-1e-05	-3e-05	-1e-05	-9e-05	-1e-05	-1e-05	0
1529	1e-05	-1e-05	-1e-05	-3e-05	-1e-05	-9e-05	-1e-05	-1e-05	0
1530	1e-05	-1e-05	-1e-05	-3e-05	-1e-05	-9e-05	-1e-05	-1e-05	0
1531	1e-05	-1e-05	-1e-05	-3e-05	-1e-05	-9e-05	-1e-05	-1e-05	0
1532	1e-05	-1e-05	-1e-05	-3e-05	-1e-05	-9e-05	-1e-05	-1e-05	0
1533	1e-05	-1e-05	-1e-05	-3e-05	-1e-05	-9e-05	-1e-05	-1e-05	0
1534	1e-05	-1e-05	-1e-05	-3e-05	-1e-05	-9e-05	-1e-05	-1e-05	0
1535	1e-05	-1e-05	-1e-05	-3e-05	-1e-05	-9e-05	-1e-05	-1e-05	0
1537	1e-05	-1e-05	-1e-05	-3e-05	-1e-05	-9e-05	-1e-05	-1e-05	0
1540	-3e-05	-1e-05	0	2e-05	0	0.00015	-2e-05	0	0
1541	-3e-05	-1e-05	0	2e-05	0	0.00015	-2e-05	0	0
1542	-3e-05	-1e-05	0	2e-05	0	0.00015	-2e-05	0	0
1543	-3e-05	-1e-05	0	2e-05	0	0.00015	-2e-05	0	0
1544	-3e-05	-1e-05	0	2e-05	0	0.00015	-2e-05	0	0
1545	-3e-05	-1e-05	0	2e-05	0	0.00015	-2e-05	0	0
1546	-3e-05	-1e-05	0	2e-05	0	0.00015	-2e-05	0	0
1547	-3e-05	-1e-05	0	2e-05	0	0.00015	-2e-05	0	0
1548	-3e-05	-1e-05	0	2e-05	0	0.00015	-2e-05	0	0
1549	-3e-05	-1e-05	0	2e-05	0	0.00015	-2e-05	0	0
1550	-3e-05	-1e-05	0	2e-05	0	0.00015	-2e-05	0	0
1551	-3e-05	-1e-05	0	2e-05	0	0.00015	-2e-05	0	0
1552	-3e-05	-1e-05	0	2e-05	0	0.00015	-2e-05	0	0
1553	-3e-05	-1e-05	0	2e-05	0	0.00015	-2e-05	0	0
1554	-3e-05	-1e-05	0	2e-05	0	0.00015	-2e-05	0	0
1555	-3e-05	-1e-05	0	2e-05	0	0.00015	-2e-05	0	0
1556	-3e-05	-1e-05	0	2e-05	0	0.00015	-2e-05	0	0
1557	-3e-05	-1e-05	0	2e-05	0	0.00015	-2e-05	0	0
1558	-3e-05	-1e-05	0	2e-05	0	0.00015	-2e-05	0	0
1559	-3e-05	-1e-05	0	2e-05	0	0.00015	-2e-05	0	0
1560	-3e-05	-1e-05	0	2e-05	0	0.00015	-2e-05	0	0
1561	-1e-05	-2e-05	-2e-05	-4e-05	-3e-05	-6e-05	-1e-05	1e-05	0
1562	-1e-05	-2e-05	-2e-05	-4e-05	-3e-05	-6e-05	-1e-05	1e-05	0
1563	0	-1e-05	-2e-05	-1e-05	-1e-05	1e-05	-3e-05	-2e-05	0
1564	0	-1e-05	-2e-05	-1e-05	-1e-05	1e-05	-3e-05	-2e-05	0
1565	0	-1e-05	-2e-05	-1e-05	-1e-05	1e-05	-3e-05	-2e-05	0
1566	0	-1e-05	-2e-05	-1e-05	-1e-05	1e-05	-3e-05	-2e-05	0
1567	0	-1e-05	-2e-05	-1e-05	-1e-05	1e-05	-3e-05	-2e-05	0
1568	0	-1e-05	-2e-05	-1e-05	-1e-05	1e-05	-3e-05	-2e-05	0
1569	0	-1e-05	-2e-05	-1e-05	-1e-05	1e-05	-3e-05	-2e-05	0
1570	0	-1e-05	-2e-05	-1e-05	-1e-05	1e-05	-3e-05	-2e-05	0
1571	0	-1e-05	-2e-05	-1e-05	-1e-05	1e-05	-3e-05	-2e-05	0
1572	0	-1e-05	-2e-05	-1e-05	-1e-05	1e-05	-3e-05	-2e-05	0
1573	0	-1e-05	-2e-05	-1e-05	-1e-05	1e-05	-3e-05	-2e-05	0
1574	0	-1e-05	-2e-05	-1e-05	-1e-05	1e-05	-3e-05	-2e-05	0
1575	-3e-05	-1e-05	-1e-05	0	-5e-05	-0.0001	-2e-05	-1e-05	0
1576	-3e-05	-1e-05	-1e-05	0	-5e-05	-0.0001	-2e-05	-1e-05	0
1577	-3e-05	-1e-05	-1e-05	0	-5e-05	-0.0001	-2e-05	-1e-05	0
1578	-3e-05	-1e-05	-1e-05	0	-5e-05	-0.0001	-2e-05	-1e-05	0
1579	-3e-05	-1e-05	-1e-05	0	-5e-05	-0.0001	-2e-05	-1e-05	0
1580	-3e-05	-1e-05	-1e-05	0	-5e-05	-0.0001	-2e-05	-1e-05	0
1581	-3e-05	-1e-05	-1e-05	0	-5e-05	-0.0001	-2e-05	-1e-05	0
1582	-3e-05	-1e-05	-1e-05	0	-5e-05	-0.0001	-2e-05	-1e-05	0
1583	-3e-05	-1e-05	-1e-05	0	-5e-05	-0.0001	-2e-05	-1e-05	0
1584	1e-05	-3e-05	0	-1e-05	-1e-05	-0.00011	-2e-05	0	0
1585	1e-05	-3e-05	0	-1e-05	-1e-05	-0.00011	-2e-05	0	0
1586	1e-05	-3e-05	0	-1e-05	-1e-05	-0.00011	-2e-05	0	0
1588	1e-05	-3e-05	0	-1e-05	-1e-05	-0.00011	-2e-05	0	0
1590	1e-05	-3e-05	0	-1e-05	-1e-05	-0.00011	-2e-05	0	0
1591	1e-05	-3e-05	0	-1e-05	-1e-05	-0.00011	-2e-05	0	0
1592	1e-05	-3e-05	0	-1e-05	-1e-05	-0.00011	-2e-05	0	0
1593	1e-05	-3e-05	0	-1e-05	-1e-05	-0.00011	-2e-05	0	0
1594	1e-05	-3e-05	0	-1e-05	-1e-05	-0.00011	-2e-05	0	0
1595	1e-05	-3e-05	0	-1e-05	-1e-05	-0.00011	-2e-05	0	0
1596	1e-05	-3e-05	0	-1e-05	-1e-05	-0.00011	-2e-05	0	0
1597	1e-05	-3e-05	0	-1e-05	-1e-05	-0.00011	-2e-05	0	0
1598	1e-05	-3e-05	0	-1e-05	-1e-05	-0.00011	-2e-05	0	0
1599	0	-1e-05	1e-05	1e-05	4e-05	0.00019	2e-05	-1e-05	0
1600	-3e-05	0	-3e-05	1e-05	0	-5e-05	-3e-05	-1e-05	0
1601	-3e-05	0	-3e-05	1e-05	0	-5e-05	-3e-05	-1e-05	0
1602	-3e-05	0	-3e-05	1e-05	0	-5e-05	-3e-05	-1e-05	0
1603	-3e-05	0	-3e-05	1e-05	0	-5e-05	-3e-05	-1e-05	0
1604	-3e-05	0	-3e-05	1e-05	0	-5e-05	-3e-05	-1e-05	0
1605	-3e-05	0	-3e-05	1e-05	0	-5e-05	-3e-05	-1e-05	0
1606	-3e-05	0	-3e-05	1e-05	0	-5e-05	-3e-05	-1e-05	0
1607	-3e-05	0	-3e-05	1e-05	0	-5e-05	-3e-05	-1e-05	0
1608	-3e-05	0	-3e-05	1e-05	0	-5e-05	-3e-05	-1e-05	0
1609	-3e-05	0	-3e-05	1e-05	0	-5e-05	-3e-05	-1e-05	0
1610	-3e-05	0	-3e-05	1e-05	0	-5e-05	-3e-05	-1e-05	0
1611	-3e-05	0	-3e-05	1e-05	0	-5e-05	-3e-05	-1e-05	0
1612	-3e-05	0	-3e-05	1e-05	0	-5e-05	-3e-05	-1e-05	0
1613	-3e-05	0	-3e-05	1e-05	0	-5e-05	-3e-05	-1e-05	0
1614	-3e-05	0	-3e-05	1e-05	0	-5e-05	-3e-05	-1e-05	0
1615	-3e-05	0	-3e-05	1e-05	0	-5e-05	-3e-05	-1e-05	0
1616	-3e-05	0	-3e-05	1e-05	0	-5e-05	-3e-05	-1e-05	0
1617	-3e-05	0	-3e-05	1e-05	0	-5e-05	-3e-05	-1e-05	0
1618	-3e-05	0	-3e-05	1e-05	0	-5e-05	-3e-05	-1e-05	0
1619	-3e-05	0	-3e-05	1e-05	0	-5e-05	-3e-05	-1e-05	0
1620	-3e-05	0	-3e-05	1e-05	0	-5e-05	-3e-05	-1e-05	0
1621	-2e-05	-3e-05	-1e-05	-1e-05	4e-05	2e-05	0	0	0
1622	-2e-05	-3e-05	-1e-05	-1e-05	4e-05	2e-05	0	0	0
1623	-2e-05	-3e-05	-1e-05	-1e-05	4e-05	2e-05	0	0	0
1624	-2e-05	-3e-05	-1e-05	-1e-05	4e-05	2e-05	0	0	0
1625	-2e-05	-3e-05	-1e-05	-1e-05	4e-05	2e-05	0	0	0
1626	-2e-05	-3e-05	-1e-05	-1e-05	4e-05	2e-05	0	0	0
1627	0	-4e-05	-1e-05	-3e-05	-1e-05	3e-05	0	1e-05	0
1628	0	-4e-05	-1e-05	-3e-05	-1e-05	3e-05	0	1e-05	0
1629	0	-4e-05	-1e-05	-3e-05	-1e-05	3e-05	0	1e-05	0
1630	0	-4e-05	-1e-05	-3e-05	-1e-05	3e-05	0	1e-05	0
1631	0	-4e-05	-1e-05	-3e-05	-1e-05	3e-05	0	1e-05	0
1632	0	-4e-05	-1e-05	-3e-05	-1e-05	3e-05	0	1e-05	0
1633	0	-4e-05	-1e-05	-3e-05	-1e-05	3e-05	0	1e-05	0
1634	0	-4e-05	-1e-05	-3e-05	-1e-05	3e-05	0	1e-05	0
1635	0	-4e-05	-1e-05	-3e-05	-1e-05	3e-05	0	1e-05	0
1636	0	-4e-05	-1e-05	-3e-05	-1e-05	3e-05	0	1e-05	0
1638	0	-4e-05	-1e-05	-3e-05	-1e-05	3e-05	0	1e-05	0
1639	0	-4e-05	-1e-05	-3e-05	-1e-05	3e-05	0	1e-05	0
1640	0	-4e-05	-1e-05	-3e-05	-1e-05	3e-05	0	1e-05	0
1641	0	-4e-05	-1e-05	-3e-05	-1e-05	3e-05	0	1e-05	0
1642	0	-4e-05	-1e-05	-3e-05	-1e-05	3e-05	0	1e-05	0
1643	0	-4e-05	-1e-05	-3e-05	-1e-05	3e-05	0	1e-05	0
1644	0	-1e-05	-2e-05	-2e-05	-4e-05	7e-05	-3e-05	-4e-05	0
1645	-2e-05	0	0	-2e-05	-1e-05	4e-05	-3e-05	-1e-05	0
1647	-2e-05	0	0	-2e-05	-1e-05	4e-05	-3e-05	-1e-05	0
1648	-2e-05	0	0	-2e-05	-1e-05	4e-05	-3e-05	-1e-05	0
1649	-2e-05	0	0	-2e-05	-1e-05	4e-05	-3e-05	-1e-05	0
1650	-2e-05	0	0	-2e-05	-1e-05	4e-05	-3e-05	-1e-05	0
1651	-2e-05	0	0	-2e-05	-1e-05	4e-05	-3e-05	-1e-05	0
1652	-2e-05	0	0	-2e-05	-1e-05	4e-05	-3e-05	-1e-05	0
1653	-2e-05	0	0	-2e-05	-1e-05	4e-05	-3e-05	-1e-05	0
1654	-2e-05	0	0	-2e-05	-1e-05	4e-05	-3e-05	-1e-05	0
1655	-2e-05	0	0	-2e-05	-1e-05	4e-05	-3e-05	-1e-05	0
1656	-2e-05	0	0	-2e-05	-1e-05	4e-05	-3e-05	-1e-05	0
1657	-2e-05	0	0	-2e-05	-1e-05	4e-05	-3e-05	-1e-05	0
1658	-2e-05	0	0	-2e-05	-1e-05	4e-05	-3e-05	-1e-05	0
1659	0	-1e-05	-1e-05	0	3e-05	5e-05	-1e-05	-1e-05	0
1660	-1e-05	1e-05	0	-2e-05	0	2e-05	1e-05	0	0
1661	-1e-05	1e-05	0	-2e-05	0	2e-05	1e-05	0	0
1662	-1e-05	1e-05	0	-2e-05	0	2e-05	1e-05	0	0
1663	-1e-05	1e-05	0	-2e-05	0	2e-05	1e-05	0	0
1664	-1e-05	1e-05	0	-2e-05	0	2e-05	1e-05	0	0
1665	-1e-05	1e-05	0	-2e-05	0	2e-05	1e-05	0	0
1666	-1e-05	1e-05	0	-2e-05	0	2e-05	1e-05	0	0
1667	-1e-05	1e-05	0	-2e-05	0	2e-05	1e-05	0	0
1668	-1e-05	1e-05	0	-2e-05	0	2e-05	1e-05	0	0
1669	-1e-05	1e-05	0	-2e-05	0	2e-05	1e-05	0	0
1670	-1e-05	1e-05	0	-2e-05	0	2e-05	1e-05	0	0
1671	-1e-05	1e-05	0	-2e-05	0	2e-05	1e-05	0	0
1672	-1e-05	1e-05	0	-2e-05	0	2e-05	1e-05	0	0
1673	-1e-05	1e-05	0	-2e-05	0	2e-05	1e-05	0	0
1674	-1e-05	1e-05	0	-2e-05	0	2e-05	1e-05	0	0
1675	-1e-05	1e-05	0	-2e-05	0	2e-05	1e-05	0	0
1676	-1e-05	1e-05	0	-2e-05	0	2e-05	1e-05	0	0
1677	-1e-05	1e-05	0	-2e-05	0	2e-05	1e-05	0	0
1678	-1e-05	1e-05	0	-2e-05	0	2e-05	1e-05	0	0
1679	-1e-05	1e-05	0	-2e-05	0	2e-05	1e-05	0	0
1680	-1e-05	1e-05	0	-2e-05	0	2e-05	1e-05	0	0
1681	1e-05	0	0	0	-3e-05	-0.00011	-1e-05	0	0
1682	1e-05	0	0	0	-3e-05	-0.00011	-1e-05	0	0
1683	0	-2e-05	-1e-05	0	2e-05	-5e-05	0	-2e-05	0
1684	0	-2e-05	-1e-05	0	2e-05	-5e-05	0	-2e-05	0
1685	0	-2e-05	-1e-05	0	2e-05	-5e-05	0	-2e-05	0
1686	0	-2e-05	-1e-05	0	2e-05	-5e-05	0	-2e-05	0
1688	0	-2e-05	-1e-05	0	2e-05	-5e-05	0	-2e-05	0
1689	0	-2e-05	-1e-05	0	2e-05	-5e-05	0	-2e-05	0
1690	0	-2e-05	-1e-05	0	2e-05	-5e-05	0	-2e-05	0
1691	0	-2e-05	-1e-05	0	2e-05	-5e-05	0	-2e-05	0
1692	0	-2e-05	-1e-05	0	2e-05	-5e-05	0	-2e-05	0
1693	0	-2e-05	-1e-05	0	2e-05	-5e-05	0	-2e-05	0
1694	0	-2e-05	-1e-05	0	2e-05	-5e-05	0	-2e-05	0
1695	0	-2e-05	-1e-05	0	2e-05	-5e-05	0	-2e-05	0
1696	0	-2e-05	-1e-05	0	2e-05	-5e-05	0	-2e-05	0
1697	0	-2e-05	-1e-05	0	2e-05	-5e-05	0	-2e-05	0
1698	0	-2e-05	-1e-05	0	2e-05	-5e-05	0	-2e-05	0
1699	0	-2e-05	-1e-05	0	2e-05	-5e-05	0	-2e-05	0
1700	0	-2e-05	-1e-05	0	2e-05	-5e-05	0	-2e-05	0
1701	0	-2e-05	-1e-05	0	2e-05	-5e-05	0	-2e-05	0
1702	0	-2e-05	-1e-05	0	2e-05	-5e-05	0	-2e-05	0
1703	0	-2e-05	-1e-05	0	2e-05	-5e-05	0	-2e-05	0
1704	-4e-05	-1e-05	-3e-05	-2e-05	-3e-05	-0.0001	0	-1e-05	0
1705	-2e-05	-1e-05	-1e-05	-1e-05	-3e-05	4e-05	-1e-05	-2e-05	0
1706	-2e-05	-1e-05	-1e-05	-1e-05	-3e-05	4e-05	-1e-05	-2e-05	0
1707	-2e-05	-1e-05	-1e-05	-1e-05	-3e-05	4e-05	-1e-05	-2e-05	0
1708	-2e-05	-1e-05	-1e-05	-1e-05	-3e-05	4e-05	-1e-05	-2e-05	0
1709	-2e-05	-1e-05	-1e-05	-1e-05	-3e-05	4e-05	-1e-05	-2e-05	0
1710	-2e-05	-1e-05	-1e-05	-1e-05	-3e-05	4e-05	-1e-05	-2e-05	0
1711	-2e-05	-1e-05	-1e-05	-1e-05	-3e-05	4e-05	-1e-05	-2e-05	0
1712	-2e-05	-1e-05	-1e-05	-1e-05	-3e-05	4e-05	-1e-05	-2e-05	0
1713	-2e-05	-1e-05	-1e-05	-1e-05	-3e-05	4e-05	-1e-05	-2e-05	0
1714	-2e-05	-1e-05	-1e-05	-1e-05	-3e-05	4e-05	-1e-05	-2e-05	0
1715	-2e-05	-1e-05	-1e-05	-1e-05	-3e-05	4e-05	-1e-05	-2e-05	0
1716	-2e-05	-1e-05	-1e-05	-1e-05	-3e-05	4e-05	-1e-05	-2e-05	0
1717	-2e-05	-1e-05	-1e-05	-1e-05	-3e-05	4e-05	-1e-05	-2e-05	0
1718	-2e-05	-1e-05	-1e-05	-1e-05	-3e-05	4e-05	-1e-05	-2e-05	0
1719	1e-05	0	-3e-05	-3e-05	-1e-05	1e-05	0	-1e-05	0
1720	-1e-05	0	-2e-05	1e-05	-1e-05	-1e-05	-3e-05	-1e-05	0
1721	-1e-05	0	-2e-05	1e-05	-1e-05	-1e-05	-3e-05	-1e-05	0
1722	-1e-05	0	-2e-05	1e-05	-1e-05	-1e-05	-3e-05	-1e-05	0
1723	-1e-05	0	-2e-05	1e-05	-1e-05	-1e-05	-3e-05	-1e-05	0
1724	-1e-05	0	-2e-05	1e-05	-1e-05	-1e-05	-3e-05	-1e-05	0
1725	-1e-05	0	-2e-05	1e-05	-1e-05	-1e-05	-3e-05	-1e-05	0
1726	-1e-05	0	-2e-05	1e-05	-1e-05	-1e-05	-3e-05	-1e-05	0
1727	-1e-05	0	-2e-05	1e-05	-1e-05	-1e-05	-3e-05	-1e-05	0
1728	-1e-05	0	-2e-05	1e-05	-1e-05	-1e-05	-3e-05	-1e-05	0
1729	-1e-05	0	-2e-05	1e-05	-1e-05	-1e-05	-3e-05	-1e-05	0
1730	-1e-05	0	-2e-05	1e-05	-1e-05	-1e-05	-3e-05	-1e-05	0
1731	-1e-05	0	-2e-05	1e-05	-1e-05	-1e-05	-3e-05	-1e-05	0
1732	-1e-05	0	-2e-05	1e-05	-1e-05	-1e-05	-3e-05	-1e-05	0
1733	-1e-05	0	-2e-05	1e-05	-1e-05	-1e-05	-3e-05	-1e-05	0
1734	-1e-05	0	-2e-05	1e-05	-1e-05	-1e-05	-3e-05	-1e-05	0
1735	-1e-05	0	-2e-05	1e-05	-1e-05	-1e-05	-3e-05	-1e-05	0
1736	-1e-05	0	-2e-05	1e-05	-1e-05	-1e-05	-3e-05	-1e-05	0
1738	-1e-05	0	-2e-05	1e-05	-1e-05	-1e-05	-3e-05	-1e-05	0
1739	-1e-05	0	-2e-05	1e-05	-1e-05	-1e-05	-3e-05	-1e-05	0
1740	-1e-05	0	-2e-05	1e-05	-1e-05	-1e-05	-3e-05	-1e-05	0
1741	-1e-05	1e-05	0	-2e-05	-1e-05	-0.00015	-4e-05	0	0
1742	-1e-05	1e-05	0	-2e-05	-1e-05	-0.00015	-4e-05	0	0
1743	-1e-05	-2e-05	-3e-05	-1e-05	0	0.0001	1e-05	-2e-05	0
1744	-1e-05	-2e-05	-3e-05	-1e-05	0	0.0001	1e-05	-2e-05	0
1745	-1e-05	-2e-05	-3e-05	-1e-05	0	0.0001	1e-05	-2e-05	0
1746	-1e-05	-2e-05	-3e-05	-1e-05	0	0.0001	1e-05	-2e-05	0
1747	-1e-05	-2e-05	-3e-05	-1e-05	0	0.0001	1e-05	-2e-05	0
1748	-1e-05	-2e-05	-3e-05	-1e-05	0	0.0001	1e-05	-2e-05	0
1749	-1e-05	-2e-05	-3e-05	-1e-05	0	0.0001	1e-05	-2e-05	0
1750	-1e-05	-2e-05	-3e-05	-1e-05	0	0.0001	1e-05	-2e-05	0
1751	-1e-05	-2e-05	-3e-05	-1e-05	0	0.0001	1e-05	-2e-05	0
1752	-1e-05	-2e-05	-3e-05	-1e-05	0	0.0001	1e-05	-2e-05	0
1753	-1e-05	-2e-05	-3e-05	-1e-05	0	0.0001	1e-05	-2e-05	0
1754	-1e-05	-2e-05	-3e-05	-1e-05	0	0.0001	1e-05	-2e-05	0
1755	-1e-05	-2e-05	-3e-05	-1e-05	0	0.0001	1e-05	-2e-05	0
1756	-1e-05	-2e-05	-3e-05	-1e-05	0	0.0001	1e-05	-2e-05	0
1757	-1e-05	-2e-05	-3e-05	-1e-05	0	0.0001	1e-05	-2e-05	0
1758	-1e-05	-2e-05	-3e-05	-1e-05	0	0.0001	1e-05	-2e-05	0
1759	-1e-05	-2e-05	-3e-05	-1e-05	0	0.0001	1e-05	-2e-05	0
1760	-1e-05	-2e-05	-3e-05	-1e-05	0	0.0001	1e-05	-2e-05	0
1761	-1e-05	-2e-05	-3e-05	-1e-05	0	0.0001	1e-05	-2e-05	0
1762	-1e-05	-2e-05	-3e-05	-1e-05	0	0.0001	1e-05	-2e-05	0
1763	-1e-05	-2e-05	-3e-05	-1e-05	0	0.0001	1e-05	-2e-05	0
1764	-3e-05	-1e-05	-2e-05	-2e-05	-1e-05	-6e-05	-3e-05	-1e-05	0
1765	0	2e-05	0	-2e-05	-1e-05	3e-05	-1e-05	-1e-05	0
1766	0	2e-05	0	-2e-05	-1e-05	3e-05	-1e-05	-1e-05	0
1767	0	2e-05	0	-2e-05	-1e-05	3e-05	-1e-05	-1e-05	0
1768	0	2e-05	0	-2e-05	-1e-05	3e-05	-1e-05	-1e-05	0
1769	0	2e-05	0	-2e-05	-1e-05	3e-05	-1e-05	-1e-05	0
1770	0	2e-05	0	-2e-05	-1e-05	3e-05	-1e-05	-1e-05	0
1771	0	2e-05	0	-2e-05	-1e-05	3e-05	-1e-05	-1e-05	0
1772	0	2e-05	0	-2e-05	-1e-05	3e-05	-1e-05	-1e-05	0
1773	0	2e-05	0	-2e-05	-1e-05	3e-05	-1e-05	-1e-05	0
1774	0	2e-05	0	-2e-05	-1e-05	3e-05	-1e-05	-1e-05	0
1775	0	2e-05	0	-2e-05	-1e-05	3e-05	-1e-05	-1e-05	0
1776	0	2e-05	0	-2e-05	-1e-05	3e-05	-1e-05	-1e-05	0
1777	0	2e-05	0	-2e-05	-1e-05	3e-05	-1e-05	-1e-05	0
1778	-1e-05	-2e-05	0	0	-1e-05	-4e-05	1e-05	-3e-05	0
1779	-1e-05	-2e-05	0	0	-1e-05	-4e-05	1e-05	-3e-05	0
1780	-1e-05	-2e-05	0	0	-1e-05	-4e-05	1e-05	-3e-05	0
1781	-1e-05	-2e-05	0	0	-1e-05	-4e-05	1e-05	-3e-05	0
1782	-1e-05	-2e-05	0	0	-1e-05	-4e-05	1e-05	-3e-05	0
1783	-1e-05	-2e-05	0	0	-1e-05	-4e-05	1e-05	-3e-05	0
1784	-1e-05	-2e-05	0	0	-1e-05	-4e-05	1e-05	-3e-05	0
1785	-1e-05	0	0	0	-4e-05	-0.00034	-1e-05	-1e-05	0
1786	-1e-05	0	0	0	-4e-05	-0.00034	-1e-05	-1e-05	0
1788	-1e-05	0	0	0	-4e-05	-0.00034	-1e-05	-1e-05	0
1789	-1e-05	0	0	0	-4e-05	-0.00034	-1e-05	-1e-05	0
1790	-1e-05	0	0	0	-4e-05	-0.00034	-1e-05	-1e-05	0
1791	-1e-05	0	0	0	-4e-05	-0.00034	-1e-05	-1e-05	0
1792	-1e-05	0	0	0	-4e-05	-0.00034	-1e-05	-1e-05	0
1793	-1e-05	0	0	0	-4e-05	-0.00034	-1e-05	-1e-05	0
1794	-1e-05	0	0	0	-4e-05	-0.00034	-1e-05	-1e-05	0
1795	-1e-05	0	0	0	-4e-05	-0.00034	-1e-05	-1e-05	0
1796	-1e-05	0	0	0	-4e-05	-0.00034	-1e-05	-1e-05	0
1797	-1e-05	0	0	0	-4e-05	-0.00034	-1e-05	-1e-05	0
1798	-1e-05	0	0	0	-4e-05	-0.00034	-1e-05	-1e-05	0
1799	-1e-05	0	0	0	-4e-05	-0.00034	-1e-05	-1e-05	0
1800	-1e-05	0	0	0	-4e-05	-0.00034	-1e-05	-1e-05	0
1801	1e-05	2e-05	1e-05	1e-05	-4e-05	1e-05	-2e-05	0	0
1802	1e-05	2e-05	1e-05	1e-05	-4e-05	1e-05	-2e-05	0	0
1803	0	-1e-05	0	-1e-05	-1e-05	3e-05	-1e-05	-1e-05	0
1804	0	-1e-05	0	-1e-05	-1e-05	3e-05	-1e-05	-1e-05	0
1805	0	-1e-05	0	-1e-05	-1e-05	3e-05	-1e-05	-1e-05	0
1806	0	-1e-05	0	-1e-05	-1e-05	3e-05	-1e-05	-1e-05	0
1807	0	-1e-05	0	-1e-05	-1e-05	3e-05	-1e-05	-1e-05	0
1808	0	-1e-05	0	-1e-05	-1e-05	3e-05	-1e-05	-1e-05	0
1809	0	-1e-05	0	-1e-05	-1e-05	3e-05	-1e-05	-1e-05	0
1810	0	-1e-05	0	-1e-05	-1e-05	3e-05	-1e-05	-1e-05	0
1811	0	-1e-05	0	-1e-05	-1e-05	3e-05	-1e-05	-1e-05	0
1812	0	-1e-05	0	-1e-05	-1e-05	3e-05	-1e-05	-1e-05	0
1813	0	-1e-05	0	-1e-05	-1e-05	3e-05	-1e-05	-1e-05	0
1814	0	-1e-05	0	-1e-05	-1e-05	3e-05	-1e-05	-1e-05	0
1815	0	-1e-05	0	-1e-05	-1e-05	3e-05	-1e-05	-1e-05	0
1816	0	-1e-05	0	-1e-05	-1e-05	3e-05	-1e-05	-1e-05	0
1817	0	-1e-05	0	-1e-05	-1e-05	3e-05	-1e-05	-1e-05	0
1818	0	-1e-05	0	-1e-05	-1e-05	3e-05	-1e-05	-1e-05	0
1819	0	-1e-05	0	-1e-05	-1e-05	3e-05	-1e-05	-1e-05	0
1820	0	-1e-05	0	-1e-05	-1e-05	3e-05	-1e-05	-1e-05	0
1821	0	-1e-05	0	-1e-05	-1e-05	3e-05	-1e-05	-1e-05	0
1822	0	-1e-05	0	-1e-05	-1e-05	3e-05	-1e-05	-1e-05	0
1823	0	-1e-05	0	-1e-05	-1e-05	3e-05	-1e-05	-1e-05	0
1824	-1e-05	-1e-05	-3e-05	-1e-05	3e-05	0	0	0	0
1825	0	-1e-05	0	1e-05	-2e-05	-0.00023	-2e-05	0	0
1826	0	-1e-05	0	1e-05	-2e-05	-0.00023	-2e-05	0	0
1827	0	-1e-05	0	1e-05	-2e-05	-0.00023	-2e-05	0	0
1828	0	-1e-05	0	1e-05	-2e-05	-0.00023	-2e-05	0	0
1829	0	-1e-05	0	1e-05	-2e-05	-0.00023	-2e-05	0	0
1830	0	-1e-05	0	1e-05	-2e-05	-0.00023	-2e-05	0	0
1831	0	-1e-05	0	1e-05	-2e-05	-0.00023	-2e-05	0	0
1832	0	-1e-05	0	1e-05	-2e-05	-0.00023	-2e-05	0	0
1833	0	-1e-05	0	1e-05	-2e-05	-0.00023	-2e-05	0	0
1834	0	-1e-05	0	1e-05	-2e-05	-0.00023	-2e-05	0	0
1835	0	-1e-05	0	1e-05	-2e-05	-0.00023	-2e-05	0	0
1836	0	-1e-05	0	1e-05	-2e-05	-0.00023	-2e-05	0	0
1838	-3e-05	-3e-05	-1e-05	-2e-05	0	3e-05	-1e-05	0	0
1839	-3e-05	-3e-05	-1e-05	-2e-05	0	3e-05	-1e-05	0	0
1840	-3e-05	-3e-05	-1e-05	-2e-05	0	3e-05	-1e-05	0	0
1841	-3e-05	-3e-05	-1e-05	-2e-05	0	3e-05	-1e-05	0	0
1842	-3e-05	-3e-05	-1e-05	-2e-05	0	3e-05	-1e-05	0	0
1843	-3e-05	-3e-05	-1e-05	-2e-05	0	3e-05	-1e-05	0	0
1844	-3e-05	-3e-05	-1e-05	-2e-05	0	3e-05	-1e-05	0	0
1845	-1e-05	0	-1e-05	-1e-05	0	-2e-05	-2e-05	-3e-05	0
1846	-1e-05	0	-1e-05	-1e-05	0	-2e-05	-2e-05	-3e-05	0
1847	-1e-05	0	-1e-05	-1e-05	0	-2e-05	-2e-05	-3e-05	0
1848	-1e-05	0	-1e-05	-1e-05	0	-2e-05	-2e-05	-3e-05	0
1849	-1e-05	0	-1e-05	-1e-05	0	-2e-05	-2e-05	-3e-05	0
1850	-1e-05	0	-1e-05	-1e-05	0	-2e-05	-2e-05	-3e-05	0
1851	-1e-05	0	-1e-05	-1e-05	0	-2e-05	-2e-05	-3e-05	0
1852	-1e-05	0	-1e-05	-1e-05	0	-2e-05	-2e-05	-3e-05	0
1853	-1e-05	0	-1e-05	-1e-05	0	-2e-05	-2e-05	-3e-05	0
1854	-1e-05	0	-1e-05	-1e-05	0	-2e-05	-2e-05	-3e-05	0
1855	-1e-05	0	-1e-05	-1e-05	0	-2e-05	-2e-05	-3e-05	0
1856	-1e-05	0	-1e-05	-1e-05	0	-2e-05	-2e-05	-3e-05	0
1857	-1e-05	0	-1e-05	-1e-05	0	-2e-05	-2e-05	-3e-05	0
1858	-1e-05	0	-1e-05	-1e-05	0	-2e-05	-2e-05	-3e-05	0
1859	-1e-05	0	-1e-05	-1e-05	0	-2e-05	-2e-05	-3e-05	0
1860	-1e-05	0	-1e-05	-1e-05	0	-2e-05	-2e-05	-3e-05	0
1861	-1e-05	-1e-05	-1e-05	-2e-05	-3e-05	-3e-05	-2e-05	0	0
1862	-1e-05	-1e-05	-1e-05	-2e-05	-3e-05	-3e-05	-2e-05	0	0
1863	-1e-05	-2e-05	-2e-05	-1e-05	-2e-05	1e-05	-1e-05	1e-05	0
1864	-1e-05	-2e-05	-2e-05	-1e-05	-2e-05	1e-05	-1e-05	1e-05	0
1865	-1e-05	-2e-05	-2e-05	-1e-05	-2e-05	1e-05	-1e-05	1e-05	0
1866	-1e-05	-2e-05	-2e-05	-1e-05	-2e-05	1e-05	-1e-05	1e-05	0
1867	-1e-05	-2e-05	-2e-05	-1e-05	-2e-05	1e-05	-1e-05	1e-05	0
1868	-1e-05	-2e-05	-2e-05	-1e-05	-2e-05	1e-05	-1e-05	1e-05	0
1869	-1e-05	-2e-05	-2e-05	-1e-05	-2e-05	1e-05	-1e-05	1e-05	0
1870	-1e-05	-2e-05	-2e-05	-1e-05	-2e-05	1e-05	-1e-05	1e-05	0
1871	-1e-05	-2e-05	-2e-05	-1e-05	-2e-05	1e-05	-1e-05	1e-05	0
1872	-1e-05	-2e-05	-2e-05	-1e-05	-2e-05	1e-05	-1e-05	1e-05	0
1873	-1e-05	-2e-05	-2e-05	-1e-05	-2e-05	1e-05	-1e-05	1e-05	0
1874	-1e-05	-2e-05	-2e-05	-1e-05	-2e-05	1e-05	-1e-05	1e-05	0
1875	-1e-05	-2e-05	-2e-05	-1e-05	-2e-05	1e-05	-1e-05	1e-05	0
1876	-1e-05	-2e-05	-2e-05	-1e-05	-2e-05	1e-05	-1e-05	1e-05	0
1877	-1e-05	-2e-05	-2e-05	-1e-05	-2e-05	1e-05	-1e-05	1e-05	0
1878	-1e-05	-2e-05	-2e-05	-1e-05	-2e-05	1e-05	-1e-05	1e-05	0
1879	-1e-05	-2e-05	-2e-05	-1e-05	-2e-05	1e-05	-1e-05	1e-05	0
1880	-1e-05	-2e-05	-2e-05	-1e-05	-2e-05	1e-05	-1e-05	1e-05	0
1881	-1e-05	-2e-05	-2e-05	-1e-05	-2e-05	1e-05	-1e-05	1e-05	0
1882	-1e-05	-2e-05	-2e-05	-1e-05	-2e-05	1e-05	-1e-05	1e-05	0
1883	-1e-05	-2e-05	-2e-05	-1e-05	-2e-05	1e-05	-1e-05	1e-05	0
1884	-1e-05	-2e-05	0	-2e-05	-6e-05	-3e-05	-1e-05	-2e-05	0
1885	-1e-05	-2e-05	0	-2e-05	-6e-05	-3e-05	-1e-05	-2e-05	0
1886	0	0	0	0	2e-05	7e-05	0	-1e-05	0
1888	0	0	0	0	2e-05	7e-05	0	-1e-05	0
1889	0	0	0	0	2e-05	7e-05	0	-1e-05	0
1890	0	0	0	0	2e-05	7e-05	0	-1e-05	0
1891	0	0	0	0	2e-05	7e-05	0	-1e-05	0
1892	0	0	0	0	2e-05	7e-05	0	-1e-05	0
1893	0	0	0	0	2e-05	7e-05	0	-1e-05	0
1894	0	0	0	0	2e-05	7e-05	0	-1e-05	0
1895	0	0	0	0	2e-05	7e-05	0	-1e-05	0
1896	0	0	0	0	2e-05	7e-05	0	-1e-05	0
1897	0	0	0	0	2e-05	7e-05	0	-1e-05	0
1898	-3e-05	0	-2e-05	1e-05	9e-05	0.00064	5e-05	-2e-05	0
1899	-3e-05	0	-2e-05	1e-05	9e-05	0.00064	5e-05	-2e-05	0
1900	-3e-05	0	-2e-05	1e-05	9e-05	0.00064	5e-05	-2e-05	0
1901	-3e-05	0	-2e-05	1e-05	9e-05	0.00064	5e-05	-2e-05	0
1902	-3e-05	0	-2e-05	1e-05	9e-05	0.00064	5e-05	-2e-05	0
1903	-3e-05	0	-2e-05	1e-05	9e-05	0.00064	5e-05	-2e-05	0
1904	-3e-05	0	-2e-05	1e-05	9e-05	0.00064	5e-05	-2e-05	0
1905	-1e-05	-2e-05	-2e-05	-3e-05	0	0.00012	0	-1e-05	0
1906	-1e-05	-2e-05	-2e-05	-3e-05	0	0.00012	0	-1e-05	0
1907	-1e-05	-2e-05	-2e-05	-3e-05	0	0.00012	0	-1e-05	0
1908	-1e-05	-2e-05	-2e-05	-3e-05	0	0.00012	0	-1e-05	0
1909	-1e-05	-2e-05	-2e-05	-3e-05	0	0.00012	0	-1e-05	0
1910	-1e-05	-2e-05	-2e-05	-3e-05	0	0.00012	0	-1e-05	0
1911	-1e-05	-2e-05	-2e-05	-3e-05	0	0.00012	0	-1e-05	0
1912	-1e-05	-2e-05	-2e-05	-3e-05	0	0.00012	0	-1e-05	0
1913	-1e-05	-2e-05	-2e-05	-3e-05	0	0.00012	0	-1e-05	0
1914	-1e-05	-2e-05	-2e-05	-3e-05	0	0.00012	0	-1e-05	0
1915	-1e-05	-2e-05	-2e-05	-3e-05	0	0.00012	0	-1e-05	0
1916	-1e-05	-2e-05	-2e-05	-3e-05	0	0.00012	0	-1e-05	0
1917	-1e-05	-2e-05	-2e-05	-3e-05	0	0.00012	0	-1e-05	0
1918	-1e-05	-2e-05	-2e-05	-3e-05	0	0.00012	0	-1e-05	0
1919	-1e-05	-2e-05	-2e-05	-3e-05	0	0.00012	0	-1e-05	0
1920	-1e-05	-2e-05	-2e-05	-3e-05	0	0.00012	0	-1e-05	0
1921	1e-05	-2e-05	1e-05	-1e-05	0	-1e-05	-1e-05	-1e-05	0
1922	1e-05	-2e-05	1e-05	-1e-05	0	-1e-05	-1e-05	-1e-05	0
1923	-3e-05	-2e-05	-2e-05	0	0	3e-05	1e-05	-1e-05	0
1924	-3e-05	-2e-05	-2e-05	0	0	3e-05	1e-05	-1e-05	0
1925	-3e-05	-2e-05	-2e-05	0	0	3e-05	1e-05	-1e-05	0
1926	-3e-05	-2e-05	-2e-05	0	0	3e-05	1e-05	-1e-05	0
1927	-3e-05	-2e-05	-2e-05	0	0	3e-05	1e-05	-1e-05	0
1928	-3e-05	-2e-05	-2e-05	0	0	3e-05	1e-05	-1e-05	0
1929	-3e-05	-2e-05	-2e-05	0	0	3e-05	1e-05	-1e-05	0
1930	-3e-05	-2e-05	-2e-05	0	0	3e-05	1e-05	-1e-05	0
1931	-3e-05	-2e-05	-2e-05	0	0	3e-05	1e-05	-1e-05	0
1932	-3e-05	-2e-05	-2e-05	0	0	3e-05	1e-05	-1e-05	0
1933	-3e-05	-2e-05	-2e-05	0	0	3e-05	1e-05	-1e-05	0
1934	-3e-05	-2e-05	-2e-05	0	0	3e-05	1e-05	-1e-05	0
1935	-3e-05	-2e-05	-2e-05	0	0	3e-05	1e-05	-1e-05	0
1936	-3e-05	-2e-05	-2e-05	0	0	3e-05	1e-05	-1e-05	0
1938	-3e-05	-2e-05	-2e-05	0	0	3e-05	1e-05	-1e-05	0
1939	-3e-05	-2e-05	-2e-05	0	0	3e-05	1e-05	-1e-05	0
1940	-3e-05	-2e-05	-2e-05	0	0	3e-05	1e-05	-1e-05	0
1941	-3e-05	-2e-05	-2e-05	0	0	3e-05	1e-05	-1e-05	0
1942	-3e-05	-2e-05	-2e-05	0	0	3e-05	1e-05	-1e-05	0
1943	-3e-05	-2e-05	-2e-05	0	0	3e-05	1e-05	-1e-05	0
1944	-1e-05	-2e-05	-1e-05	0	-2e-05	-0.00013	0	-2e-05	0
1945	-1e-05	0	0	-1e-05	-4e-05	-0.00011	0	-2e-05	0
1946	-1e-05	0	0	-1e-05	-4e-05	-0.00011	0	-2e-05	0
1947	-1e-05	0	0	-1e-05	-4e-05	-0.00011	0	-2e-05	0
1948	-1e-05	0	0	-1e-05	-4e-05	-0.00011	0	-2e-05	0
1949	-1e-05	0	0	-1e-05	-4e-05	-0.00011	0	-2e-05	0
1950	-1e-05	0	0	-1e-05	-4e-05	-0.00011	0	-2e-05	0
1951	-1e-05	0	0	-1e-05	-4e-05	-0.00011	0	-2e-05	0
1952	-1e-05	0	0	-1e-05	-4e-05	-0.00011	0	-2e-05	0
1953	-1e-05	0	0	-1e-05	-4e-05	-0.00011	0	-2e-05	0
1954	-1e-05	0	0	-1e-05	-4e-05	-0.00011	0	-2e-05	0
1955	-1e-05	0	0	-1e-05	-4e-05	-0.00011	0	-2e-05	0
1956	-1e-05	0	0	-1e-05	-4e-05	-0.00011	0	-2e-05	0
1957	-1e-05	0	0	-1e-05	-4e-05	-0.00011	0	-2e-05	0
1958	0	-2e-05	-5e-05	-3e-05	-2e-05	-0.00013	-1e-05	-1e-05	0
1959	0	-2e-05	-5e-05	-3e-05	-2e-05	-0.00013	-1e-05	-1e-05	0
1960	0	-2e-05	-5e-05	-3e-05	-2e-05	-0.00013	-1e-05	-1e-05	0
1961	0	-2e-05	-5e-05	-3e-05	-2e-05	-0.00013	-1e-05	-1e-05	0
1962	0	-2e-05	-5e-05	-3e-05	-2e-05	-0.00013	-1e-05	-1e-05	0
1963	0	-2e-05	-5e-05	-3e-05	-2e-05	-0.00013	-1e-05	-1e-05	0
1964	0	-2e-05	-5e-05	-3e-05	-2e-05	-0.00013	-1e-05	-1e-05	0
1966	-1e-05	0	-3e-05	0	-1e-05	8e-05	-1e-05	0	0
1967	-1e-05	0	-3e-05	0	-1e-05	8e-05	-1e-05	0	0
1968	-1e-05	0	-3e-05	0	-1e-05	8e-05	-1e-05	0	0
1969	-1e-05	0	-3e-05	0	-1e-05	8e-05	-1e-05	0	0
1971	-1e-05	0	-3e-05	0	-1e-05	8e-05	-1e-05	0	0
1972	-1e-05	0	-3e-05	0	-1e-05	8e-05	-1e-05	0	0
1975	-1e-05	0	-3e-05	0	-1e-05	8e-05	-1e-05	0	0
1976	-1e-05	0	-3e-05	0	-1e-05	8e-05	-1e-05	0	0
1977	-1e-05	0	-3e-05	0	-1e-05	8e-05	-1e-05	0	0
1978	-1e-05	0	-3e-05	0	-1e-05	8e-05	-1e-05	0	0
1979	-1e-05	0	-3e-05	0	-1e-05	8e-05	-1e-05	0	0
1980	-1e-05	0	-3e-05	0	-1e-05	8e-05	-1e-05	0	0
1981	1e-05	-1e-05	0	0	4e-05	8e-05	-2e-05	-1e-05	0
1982	1e-05	-1e-05	0	0	4e-05	8e-05	-2e-05	-1e-05	0
1983	-1e-05	-1e-05	-2e-05	-1e-05	1e-05	0.00014	1e-05	0	0
1984	-1e-05	-1e-05	-2e-05	-1e-05	1e-05	0.00014	1e-05	0	0
1985	-1e-05	-1e-05	-2e-05	-1e-05	1e-05	0.00014	1e-05	0	0
1987	-1e-05	-1e-05	-2e-05	-1e-05	1e-05	0.00014	1e-05	0	0
1989	-1e-05	-1e-05	-2e-05	-1e-05	1e-05	0.00014	1e-05	0	0
1990	-1e-05	-1e-05	-2e-05	-1e-05	1e-05	0.00014	1e-05	0	0
1991	-1e-05	-1e-05	-2e-05	-1e-05	1e-05	0.00014	1e-05	0	0
1992	-1e-05	-1e-05	-2e-05	-1e-05	1e-05	0.00014	1e-05	0	0
1993	-1e-05	-1e-05	-2e-05	-1e-05	1e-05	0.00014	1e-05	0	0
1994	-1e-05	-1e-05	-2e-05	-1e-05	1e-05	0.00014	1e-05	0	0
1995	-1e-05	-1e-05	-2e-05	-1e-05	1e-05	0.00014	1e-05	0	0
1996	-1e-05	-1e-05	-2e-05	-1e-05	1e-05	0.00014	1e-05	0	0
1997	-1e-05	-1e-05	-2e-05	-1e-05	1e-05	0.00014	1e-05	0	0
1998	-1e-05	-1e-05	-2e-05	-1e-05	1e-05	0.00014	1e-05	0	0
1999	-1e-05	-1e-05	-2e-05	-1e-05	1e-05	0.00014	1e-05	0	0
2000	-1e-05	-1e-05	-2e-05	-1e-05	1e-05	0.00014	1e-05	0	0
2001	-1e-05	-1e-05	-2e-05	-1e-05	1e-05	0.00014	1e-05	0	0
2002	-1e-05	-1e-05	-2e-05	-1e-05	1e-05	0.00014	1e-05	0	0
2003	-1e-05	-1e-05	-2e-05	-1e-05	1e-05	0.00014	1e-05	0	0
2004	-3e-05	0	0	-2e-05	-0.00012	-0.00067	-4e-05	-1e-05	0
2005	-2e-05	1e-05	2e-05	1e-05	-4e-05	-0.00026	-1e-05	1e-05	0
2006	-2e-05	1e-05	2e-05	1e-05	-4e-05	-0.00026	-1e-05	1e-05	0
2007	-2e-05	1e-05	2e-05	1e-05	-4e-05	-0.00026	-1e-05	1e-05	0
2008	-2e-05	1e-05	2e-05	1e-05	-4e-05	-0.00026	-1e-05	1e-05	0
2009	-2e-05	1e-05	2e-05	1e-05	-4e-05	-0.00026	-1e-05	1e-05	0
2010	-2e-05	1e-05	2e-05	1e-05	-4e-05	-0.00026	-1e-05	1e-05	0
2011	-2e-05	1e-05	2e-05	1e-05	-4e-05	-0.00026	-1e-05	1e-05	0
2012	-2e-05	1e-05	2e-05	1e-05	-4e-05	-0.00026	-1e-05	1e-05	0
2013	-2e-05	1e-05	2e-05	1e-05	-4e-05	-0.00026	-1e-05	1e-05	0
2014	-2e-05	1e-05	2e-05	1e-05	-4e-05	-0.00026	-1e-05	1e-05	0
2015	-2e-05	1e-05	2e-05	1e-05	-4e-05	-0.00026	-1e-05	1e-05	0
2016	-2e-05	1e-05	2e-05	1e-05	-4e-05	-0.00026	-1e-05	1e-05	0
2017	-2e-05	1e-05	2e-05	1e-05	-4e-05	-0.00026	-1e-05	1e-05	0
2018	-1e-05	0	-1e-05	-1e-05	1e-05	7e-05	-2e-05	0	0
2019	-1e-05	0	-1e-05	-1e-05	1e-05	7e-05	-2e-05	0	0
2020	-1e-05	0	-1e-05	-1e-05	1e-05	7e-05	-2e-05	0	0
2021	-1e-05	0	-1e-05	-1e-05	1e-05	7e-05	-2e-05	0	0
2022	-1e-05	0	-1e-05	-1e-05	1e-05	7e-05	-2e-05	0	0
2023	-1e-05	0	-1e-05	-1e-05	1e-05	7e-05	-2e-05	0	0
2024	-1e-05	0	-1e-05	-1e-05	1e-05	7e-05	-2e-05	0	0
2025	0	-2e-05	-2e-05	-2e-05	0	3e-05	0	-2e-05	0
2026	0	-2e-05	-2e-05	-2e-05	0	3e-05	0	-2e-05	0
2027	0	-2e-05	-2e-05	-2e-05	0	3e-05	0	-2e-05	0
2028	0	-2e-05	-2e-05	-2e-05	0	3e-05	0	-2e-05	0
2029	0	-2e-05	-2e-05	-2e-05	0	3e-05	0	-2e-05	0
2030	0	-2e-05	-2e-05	-2e-05	0	3e-05	0	-2e-05	0
2031	0	-2e-05	-2e-05	-2e-05	0	3e-05	0	-2e-05	0
2032	0	-2e-05	-2e-05	-2e-05	0	3e-05	0	-2e-05	0
2033	0	-2e-05	-2e-05	-2e-05	0	3e-05	0	-2e-05	0
2034	0	-2e-05	-2e-05	-2e-05	0	3e-05	0	-2e-05	0
2035	0	-2e-05	-2e-05	-2e-05	0	3e-05	0	-2e-05	0
2036	0	-2e-05	-2e-05	-2e-05	0	3e-05	0	-2e-05	0
2038	0	-2e-05	-2e-05	-2e-05	0	3e-05	0	-2e-05	0
2039	0	-2e-05	-2e-05	-2e-05	0	3e-05	0	-2e-05	0
2040	0	-2e-05	-2e-05	-2e-05	0	3e-05	0	-2e-05	0
2041	0	0	-1e-05	0	-1e-05	-5e-05	-1e-05	-3e-05	0
2042	0	0	-1e-05	0	-1e-05	-5e-05	-1e-05	-3e-05	0
2043	-1e-05	-1e-05	-1e-05	-1e-05	0	3e-05	-3e-05	-1e-05	0
2044	-1e-05	-1e-05	-1e-05	-1e-05	0	3e-05	-3e-05	-1e-05	0
2045	-1e-05	-1e-05	-1e-05	-1e-05	0	3e-05	-3e-05	-1e-05	0
2046	-1e-05	-1e-05	-1e-05	-1e-05	0	3e-05	-3e-05	-1e-05	0
2047	-1e-05	-1e-05	-1e-05	-1e-05	0	3e-05	-3e-05	-1e-05	0
2048	-1e-05	-1e-05	-1e-05	-1e-05	0	3e-05	-3e-05	-1e-05	0
2049	-1e-05	-1e-05	-1e-05	-1e-05	0	3e-05	-3e-05	-1e-05	0
2050	-1e-05	-1e-05	-1e-05	-1e-05	0	3e-05	-3e-05	-1e-05	0
2051	-1e-05	-1e-05	-1e-05	-1e-05	0	3e-05	-3e-05	-1e-05	0
2052	-1e-05	-1e-05	-1e-05	-1e-05	0	3e-05	-3e-05	-1e-05	0
2053	-1e-05	-1e-05	-1e-05	-1e-05	0	3e-05	-3e-05	-1e-05	0
2054	-1e-05	-1e-05	-1e-05	-1e-05	0	3e-05	-3e-05	-1e-05	0
2055	-1e-05	-1e-05	-1e-05	-1e-05	0	3e-05	-3e-05	-1e-05	0
2056	-1e-05	-1e-05	-1e-05	-1e-05	0	3e-05	-3e-05	-1e-05	0
2057	-1e-05	-1e-05	-1e-05	-1e-05	0	3e-05	-3e-05	-1e-05	0
2058	-1e-05	-1e-05	-1e-05	-1e-05	0	3e-05	-3e-05	-1e-05	0
2059	-1e-05	-1e-05	-1e-05	-1e-05	0	3e-05	-3e-05	-1e-05	0
2060	-1e-05	-1e-05	-1e-05	-1e-05	0	3e-05	-3e-05	-1e-05	0
2061	-1e-05	-1e-05	-1e-05	-1e-05	0	3e-05	-3e-05	-1e-05	0
2062	-1e-05	-1e-05	-1e-05	-1e-05	0	3e-05	-3e-05	-1e-05	0
2063	-1e-05	-1e-05	-1e-05	-1e-05	0	3e-05	-3e-05	-1e-05	0
2064	-1e-05	-1e-05	0	0	-2e-05	1e-05	-1e-05	-2e-05	0
2065	-3e-05	-1e-05	1e-05	-2e-05	-6e-05	-9e-05	-3e-05	-1e-05	0
2066	-3e-05	-1e-05	1e-05	-2e-05	-6e-05	-9e-05	-3e-05	-1e-05	0
2067	-3e-05	-1e-05	1e-05	-2e-05	-6e-05	-9e-05	-3e-05	-1e-05	0
2068	-3e-05	-1e-05	1e-05	-2e-05	-6e-05	-9e-05	-3e-05	-1e-05	0
2069	-3e-05	-1e-05	1e-05	-2e-05	-6e-05	-9e-05	-3e-05	-1e-05	0
2070	-3e-05	-1e-05	1e-05	-2e-05	-6e-05	-9e-05	-3e-05	-1e-05	0
2071	-3e-05	-1e-05	1e-05	-2e-05	-6e-05	-9e-05	-3e-05	-1e-05	0
2072	-3e-05	-1e-05	1e-05	-2e-05	-6e-05	-9e-05	-3e-05	-1e-05	0
2073	-3e-05	-1e-05	1e-05	-2e-05	-6e-05	-9e-05	-3e-05	-1e-05	0
2074	-3e-05	-1e-05	1e-05	-2e-05	-6e-05	-9e-05	-3e-05	-1e-05	0
2075	-3e-05	-1e-05	1e-05	-2e-05	-6e-05	-9e-05	-3e-05	-1e-05	0
2076	-3e-05	-1e-05	1e-05	-2e-05	-6e-05	-9e-05	-3e-05	-1e-05	0
2077	-3e-05	-1e-05	1e-05	-2e-05	-6e-05	-9e-05	-3e-05	-1e-05	0
2078	-2e-05	-3e-05	-3e-05	-2e-05	-3e-05	-1e-05	2e-05	1e-05	0
2079	-2e-05	-3e-05	-3e-05	-2e-05	-3e-05	-1e-05	2e-05	1e-05	0
2080	-2e-05	-3e-05	-3e-05	-2e-05	-3e-05	-1e-05	2e-05	1e-05	0
2081	-2e-05	-3e-05	-3e-05	-2e-05	-3e-05	-1e-05	2e-05	1e-05	0
2082	-2e-05	-3e-05	-3e-05	-2e-05	-3e-05	-1e-05	2e-05	1e-05	0
2083	-2e-05	-3e-05	-3e-05	-2e-05	-3e-05	-1e-05	2e-05	1e-05	0
2084	-2e-05	-3e-05	-3e-05	-2e-05	-3e-05	-1e-05	2e-05	1e-05	0
2085	-1e-05	0	-2e-05	0	-2e-05	0	-2e-05	-2e-05	0
2086	-1e-05	0	-2e-05	0	-2e-05	0	-2e-05	-2e-05	0
2089	-1e-05	0	-2e-05	0	-2e-05	0	-2e-05	-2e-05	0
2090	-1e-05	0	-2e-05	0	-2e-05	0	-2e-05	-2e-05	0
2091	-1e-05	0	-2e-05	0	-2e-05	0	-2e-05	-2e-05	0
2092	-1e-05	0	-2e-05	0	-2e-05	0	-2e-05	-2e-05	0
2093	-1e-05	0	-2e-05	0	-2e-05	0	-2e-05	-2e-05	0
2094	-1e-05	0	-2e-05	0	-2e-05	0	-2e-05	-2e-05	0
2095	-1e-05	0	-2e-05	0	-2e-05	0	-2e-05	-2e-05	0
2096	-1e-05	0	-2e-05	0	-2e-05	0	-2e-05	-2e-05	0
2097	-1e-05	0	-2e-05	0	-2e-05	0	-2e-05	-2e-05	0
2098	-1e-05	0	-2e-05	0	-2e-05	0	-2e-05	-2e-05	0
2099	-1e-05	0	-2e-05	0	-2e-05	0	-2e-05	-2e-05	0
2100	-1e-05	0	-2e-05	0	-2e-05	0	-2e-05	-2e-05	0
2101	1e-05	-2e-05	-1e-05	0	-1e-05	9e-05	0	-1e-05	0
2104	1e-05	-2e-05	-1e-05	-2e-05	-1e-05	-0.0001	-1e-05	1e-05	0
2105	-1e-05	-3e-05	-3e-05	-1e-05	1e-05	5e-05	1e-05	-1e-05	0
2106	-1e-05	-3e-05	-3e-05	-1e-05	1e-05	5e-05	1e-05	-1e-05	0
2107	-1e-05	-3e-05	-3e-05	-1e-05	1e-05	5e-05	1e-05	-1e-05	0
2108	-1e-05	-3e-05	-3e-05	-1e-05	1e-05	5e-05	1e-05	-1e-05	0
2109	-1e-05	-3e-05	-3e-05	-1e-05	1e-05	5e-05	1e-05	-1e-05	0
2110	-1e-05	-3e-05	-3e-05	-1e-05	1e-05	5e-05	1e-05	-1e-05	0
2111	-1e-05	-3e-05	-3e-05	-1e-05	1e-05	5e-05	1e-05	-1e-05	0
2112	-1e-05	-3e-05	-3e-05	-1e-05	1e-05	5e-05	1e-05	-1e-05	0
2113	-1e-05	-3e-05	-3e-05	-1e-05	1e-05	5e-05	1e-05	-1e-05	0
2114	-1e-05	-3e-05	-3e-05	-1e-05	1e-05	5e-05	1e-05	-1e-05	0
2115	-1e-05	-3e-05	-3e-05	-1e-05	1e-05	5e-05	1e-05	-1e-05	0
2116	-1e-05	-3e-05	-3e-05	-1e-05	1e-05	5e-05	1e-05	-1e-05	0
2117	-1e-05	-3e-05	-3e-05	-1e-05	1e-05	5e-05	1e-05	-1e-05	0
2118	-1e-05	-3e-05	-3e-05	-1e-05	1e-05	5e-05	1e-05	-1e-05	0
2119	-1e-05	-3e-05	-3e-05	-1e-05	1e-05	5e-05	1e-05	-1e-05	0
2120	-1e-05	-3e-05	-3e-05	-1e-05	1e-05	5e-05	1e-05	-1e-05	0
2121	-1e-05	-3e-05	-3e-05	-1e-05	1e-05	5e-05	1e-05	-1e-05	0
2122	-1e-05	-3e-05	-3e-05	-1e-05	1e-05	5e-05	1e-05	-1e-05	0
2123	-1e-05	-3e-05	-3e-05	-1e-05	1e-05	5e-05	1e-05	-1e-05	0
2124	1e-05	0	0	0	0	-9e-05	-2e-05	0	0
2125	-1e-05	0	2e-05	0	-6e-05	-9e-05	-2e-05	-4e-05	0
2126	-1e-05	-2e-05	-2e-05	-1e-05	1e-05	-0.00019	-1e-05	-1e-05	0
2130	-1e-05	-2e-05	-2e-05	-1e-05	1e-05	-0.00019	-1e-05	-1e-05	1
2131	-1e-05	-2e-05	-2e-05	-1e-05	1e-05	-0.00019	-1e-05	-1e-05	1
2132	-1e-05	-2e-05	-2e-05	-1e-05	1e-05	-0.00019	-1e-05	-1e-05	1
2133	-1e-05	-2e-05	-2e-05	-1e-05	1e-05	-0.00019	-1e-05	-1e-05	1
2134	-1e-05	-2e-05	-2e-05	-1e-05	1e-05	-0.00019	-1e-05	-1e-05	1
2135	-1e-05	-2e-05	-2e-05	-1e-05	1e-05	-0.00019	-1e-05	-1e-05	1
2136	-1e-05	-1e-05	0	0	-1e-05	1e-05	-1e-05	-1e-05	1
2139	-1e-05	-1e-05	0	0	-1e-05	1e-05	-1e-05	-1e-05	1
2140	-1e-05	-1e-05	0	0	-1e-05	1e-05	-1e-05	-1e-05	1
2141	-1e-05	-1e-05	0	0	-1e-05	1e-05	-1e-05	-1e-05	1
2142	-1e-05	-1e-05	0	0	-1e-05	1e-05	-1e-05	-1e-05	1
2143	-1e-05	-1e-05	0	0	-1e-05	1e-05	-1e-05	-1e-05	1
2144	-1e-05	-1e-05	0	0	-1e-05	1e-05	-1e-05	-1e-05	1
2145	-1e-05	-1e-05	0	0	-1e-05	1e-05	-1e-05	-1e-05	1
2146	-2e-05	-1e-05	-3e-05	-3e-05	0	0.0001	0	-1e-05	1
2147	0	-1e-05	1e-05	0	-2e-05	-0.0001	-2e-05	-1e-05	1
2148	0	-1e-05	1e-05	0	-2e-05	-0.0001	-2e-05	-1e-05	1
2149	0	-1e-05	1e-05	0	-2e-05	-0.0001	-2e-05	-1e-05	1
2150	0	-1e-05	1e-05	0	-2e-05	-0.0001	-2e-05	-1e-05	1
2151	0	-1e-05	1e-05	0	-2e-05	-0.0001	-2e-05	-1e-05	1
2152	0	-1e-05	1e-05	0	-2e-05	-0.0001	-2e-05	-1e-05	1
2153	0	-1e-05	1e-05	0	-2e-05	-0.0001	-2e-05	-1e-05	1
2154	0	-1e-05	1e-05	0	-2e-05	-0.0001	-2e-05	-1e-05	1
2155	0	-1e-05	1e-05	0	-2e-05	-0.0001	-2e-05	-1e-05	1
2156	0	-1e-05	1e-05	0	-2e-05	-0.0001	-2e-05	-1e-05	1
2157	0	-1e-05	1e-05	0	-2e-05	-0.0001	-2e-05	-1e-05	1
2158	0	-1e-05	1e-05	0	-2e-05	-0.0001	-2e-05	-1e-05	1
2159	0	-1e-05	1e-05	0	-2e-05	-0.0001	-2e-05	-1e-05	1
2160	0	-1e-05	1e-05	0	-2e-05	-0.0001	-2e-05	-1e-05	1
2161	0	-1e-05	-2e-05	-1e-05	-2e-05	-4e-05	-1e-05	0	1
2162	0	-1e-05	-2e-05	-1e-05	-2e-05	-4e-05	-1e-05	0	1
2163	0	0	-2e-05	-1e-05	0	0.00014	0	1e-05	1
2164	0	0	-2e-05	-1e-05	0	0.00014	0	1e-05	1
2165	0	0	-2e-05	-1e-05	0	0.00014	0	1e-05	1
2166	0	0	-2e-05	-1e-05	0	0.00014	0	1e-05	1
2167	0	0	-2e-05	-1e-05	0	0.00014	0	1e-05	1
2168	0	0	-2e-05	-1e-05	0	0.00014	0	1e-05	1
2169	0	0	-2e-05	-1e-05	0	0.00014	0	1e-05	1
2170	0	0	-2e-05	-1e-05	0	0.00014	0	1e-05	1
2171	0	0	-2e-05	-1e-05	0	0.00014	0	1e-05	1
2172	0	0	-2e-05	-1e-05	0	0.00014	0	1e-05	1
2173	0	0	-2e-05	-1e-05	0	0.00014	0	1e-05	1
2174	0	0	-2e-05	-1e-05	0	0.00014	0	1e-05	1
2175	0	0	-2e-05	-1e-05	0	0.00014	0	1e-05	1
2176	0	0	-2e-05	-1e-05	0	0.00014	0	1e-05	1
2177	0	0	-2e-05	-1e-05	0	0.00014	0	1e-05	1
2178	0	0	-2e-05	-1e-05	0	0.00014	0	1e-05	1
2179	0	0	-2e-05	-1e-05	0	0.00014	0	1e-05	1
2180	0	0	-2e-05	-1e-05	0	0.00014	0	1e-05	1
2181	0	0	-2e-05	-1e-05	0	0.00014	0	1e-05	1
2182	0	0	-2e-05	-1e-05	0	0.00014	0	1e-05	1
2183	0	0	-2e-05	-1e-05	0	0.00014	0	1e-05	1
2184	-1e-05	-2e-05	2e-05	-1e-05	-2e-05	0	1e-05	-3e-05	1
2185	0	0	-2e-05	0	-3e-05	-4e-05	-1e-05	-2e-05	1
2187	-1e-05	-1e-05	-1e-05	-3e-05	1e-05	1e-05	-1e-05	0	1
2189	-1e-05	-1e-05	-1e-05	-3e-05	1e-05	1e-05	-1e-05	0	1
2190	-1e-05	-1e-05	-1e-05	-3e-05	1e-05	1e-05	-1e-05	0	1
2191	-1e-05	-1e-05	-1e-05	-3e-05	1e-05	1e-05	-1e-05	0	1
2192	-1e-05	-1e-05	-1e-05	-3e-05	1e-05	1e-05	-1e-05	0	1
2193	-1e-05	-1e-05	-1e-05	-3e-05	1e-05	1e-05	-1e-05	0	1
2194	-1e-05	-1e-05	-1e-05	-3e-05	1e-05	1e-05	-1e-05	0	1
2195	-1e-05	-1e-05	-1e-05	-3e-05	1e-05	1e-05	-1e-05	0	1
2196	-1e-05	-1e-05	-1e-05	-3e-05	1e-05	1e-05	-1e-05	0	1
2197	-2e-05	0	0	0	4e-05	0.00014	-1e-05	-2e-05	1
2198	-2e-05	0	0	0	4e-05	0.00014	-1e-05	-2e-05	1
2199	-2e-05	0	0	0	4e-05	0.00014	-1e-05	-2e-05	1
2200	-2e-05	0	0	0	4e-05	0.00014	-1e-05	-2e-05	1
2201	-2e-05	0	0	0	4e-05	0.00014	-1e-05	-2e-05	1
2202	-2e-05	0	0	0	4e-05	0.00014	-1e-05	-2e-05	1
2203	-2e-05	0	0	0	4e-05	0.00014	-1e-05	-2e-05	1
2204	-2e-05	0	0	0	4e-05	0.00014	-1e-05	-2e-05	1
2205	-2e-05	0	0	0	4e-05	0.00014	-1e-05	-2e-05	1
2206	-1e-05	-3e-05	-1e-05	-1e-05	-2e-05	-0.00019	-3e-05	0	1
2207	-1e-05	-2e-05	0	0	0	0.0002	4e-05	-1e-05	1
2208	-1e-05	-2e-05	0	0	0	0.0002	4e-05	-1e-05	1
2209	-1e-05	-2e-05	0	0	0	0.0002	4e-05	-1e-05	1
2210	-1e-05	-2e-05	0	0	0	0.0002	4e-05	-1e-05	1
2211	-1e-05	-2e-05	0	0	0	0.0002	4e-05	-1e-05	1
2212	-1e-05	-2e-05	0	0	0	0.0002	4e-05	-1e-05	1
2213	-1e-05	-2e-05	0	0	0	0.0002	4e-05	-1e-05	1
2214	-1e-05	-2e-05	0	0	0	0.0002	4e-05	-1e-05	1
2215	-1e-05	-2e-05	0	0	0	0.0002	4e-05	-1e-05	1
2216	-1e-05	-2e-05	0	0	0	0.0002	4e-05	-1e-05	1
2217	-1e-05	-2e-05	0	0	0	0.0002	4e-05	-1e-05	1
2218	-1e-05	-2e-05	0	0	0	0.0002	4e-05	-1e-05	1
2219	-1e-05	-2e-05	0	0	0	0.0002	4e-05	-1e-05	1
2220	-1e-05	-2e-05	0	0	0	0.0002	4e-05	-1e-05	1
2221	-1e-05	-3e-05	-3e-05	-3e-05	0	3e-05	-1e-05	1e-05	1
2222	-1e-05	-3e-05	-3e-05	-3e-05	0	3e-05	-1e-05	1e-05	1
2223	-1e-05	-1e-05	-2e-05	-1e-05	-3e-05	-8e-05	-2e-05	0	1
2224	-1e-05	-1e-05	-2e-05	-1e-05	-3e-05	-8e-05	-2e-05	0	1
2225	-1e-05	-1e-05	-2e-05	-1e-05	-3e-05	-8e-05	-2e-05	0	1
2226	-1e-05	-1e-05	-2e-05	-1e-05	-3e-05	-8e-05	-2e-05	0	1
2227	-1e-05	-1e-05	-2e-05	-1e-05	-3e-05	-8e-05	-2e-05	0	1
2228	-1e-05	-1e-05	-2e-05	-1e-05	-3e-05	-8e-05	-2e-05	0	1
2229	-1e-05	-1e-05	-2e-05	-1e-05	-3e-05	-8e-05	-2e-05	0	1
2230	-1e-05	-1e-05	-2e-05	-1e-05	-3e-05	-8e-05	-2e-05	0	1
2231	-1e-05	-1e-05	-2e-05	-1e-05	-3e-05	-8e-05	-2e-05	0	1
2232	-1e-05	-1e-05	-2e-05	-1e-05	-3e-05	-8e-05	-2e-05	0	1
2233	-1e-05	-1e-05	-2e-05	-1e-05	-3e-05	-8e-05	-2e-05	0	1
2234	-1e-05	-1e-05	-2e-05	-1e-05	-3e-05	-8e-05	-2e-05	0	1
2235	-1e-05	-1e-05	-2e-05	-1e-05	-3e-05	-8e-05	-2e-05	0	1
2237	-1e-05	-1e-05	-2e-05	-1e-05	-3e-05	-8e-05	-2e-05	0	1
2239	-1e-05	-1e-05	-2e-05	-1e-05	-3e-05	-8e-05	-2e-05	0	1
2240	-1e-05	-1e-05	-2e-05	-1e-05	-3e-05	-8e-05	-2e-05	0	1
2241	-1e-05	-1e-05	-2e-05	-1e-05	-3e-05	-8e-05	-2e-05	0	1
2242	-1e-05	-1e-05	-2e-05	-1e-05	-3e-05	-8e-05	-2e-05	0	1
2243	-1e-05	-1e-05	-2e-05	-1e-05	-3e-05	-8e-05	-2e-05	0	1
2244	-2e-05	-1e-05	1e-05	2e-05	-1e-05	-1e-05	0	0	1
2245	-1e-05	-2e-05	-1e-05	0	-3e-05	-0.00033	-3e-05	-1e-05	1
2246	-1e-05	-2e-05	-1e-05	0	-3e-05	-0.00033	-3e-05	-1e-05	1
2247	-1e-05	-2e-05	-1e-05	0	-3e-05	-0.00033	-3e-05	-1e-05	1
2248	-1e-05	-2e-05	-1e-05	0	-3e-05	-0.00033	-3e-05	-1e-05	1
2249	-1e-05	-2e-05	-1e-05	0	-3e-05	-0.00033	-3e-05	-1e-05	1
2250	-1e-05	-2e-05	-1e-05	0	-3e-05	-0.00033	-3e-05	-1e-05	1
2251	-1e-05	-2e-05	-1e-05	0	-3e-05	-0.00033	-3e-05	-1e-05	1
2252	-1e-05	-2e-05	-1e-05	0	-3e-05	-0.00033	-3e-05	-1e-05	1
2253	-1e-05	-2e-05	-1e-05	0	-3e-05	-0.00033	-3e-05	-1e-05	1
2254	-1e-05	-2e-05	-1e-05	0	-3e-05	-0.00033	-3e-05	-1e-05	1
2255	-1e-05	-2e-05	-1e-05	0	-3e-05	-0.00033	-3e-05	-1e-05	1
2256	-1e-05	-2e-05	-1e-05	0	-3e-05	-0.00033	-3e-05	-1e-05	1
2257	-1e-05	0	0	-4e-05	-3e-05	6e-05	-2e-05	-3e-05	1
2258	0	0	-3e-05	-2e-05	-2e-05	-0.0001	-1e-05	0	1
2259	0	0	-3e-05	-2e-05	-2e-05	-0.0001	-1e-05	0	1
2260	0	0	-3e-05	-2e-05	-2e-05	-0.0001	-1e-05	0	1
2261	0	0	-3e-05	-2e-05	-2e-05	-0.0001	-1e-05	0	1
2262	0	0	-3e-05	-2e-05	-2e-05	-0.0001	-1e-05	0	1
2263	0	0	-3e-05	-2e-05	-2e-05	-0.0001	-1e-05	0	1
2264	0	0	-3e-05	-2e-05	-2e-05	-0.0001	-1e-05	0	1
2265	0	0	-3e-05	-2e-05	-2e-05	-0.0001	-1e-05	0	1
2266	-1e-05	-1e-05	-2e-05	-2e-05	1e-05	-1e-05	-3e-05	-2e-05	1
2267	-1e-05	-1e-05	-2e-05	-2e-05	1e-05	-1e-05	-3e-05	-2e-05	1
2268	-1e-05	-1e-05	-2e-05	-2e-05	1e-05	-1e-05	-3e-05	-2e-05	1
2269	-1e-05	-1e-05	-2e-05	-2e-05	1e-05	-1e-05	-3e-05	-2e-05	1
2270	-1e-05	-1e-05	-2e-05	-2e-05	1e-05	-1e-05	-3e-05	-2e-05	1
2271	-1e-05	-1e-05	-2e-05	-2e-05	1e-05	-1e-05	-3e-05	-2e-05	1
2272	-1e-05	-1e-05	-2e-05	-2e-05	1e-05	-1e-05	-3e-05	-2e-05	1
2273	-1e-05	-1e-05	-2e-05	-2e-05	1e-05	-1e-05	-3e-05	-2e-05	1
2274	-1e-05	-1e-05	-2e-05	-2e-05	1e-05	-1e-05	-3e-05	-2e-05	1
2275	-1e-05	-1e-05	-2e-05	-2e-05	1e-05	-1e-05	-3e-05	-2e-05	1
2276	-1e-05	-1e-05	-2e-05	-2e-05	1e-05	-1e-05	-3e-05	-2e-05	1
2277	-1e-05	-1e-05	-2e-05	-2e-05	1e-05	-1e-05	-3e-05	-2e-05	1
2278	-1e-05	-1e-05	-2e-05	-2e-05	1e-05	-1e-05	-3e-05	-2e-05	1
2279	-1e-05	-1e-05	-2e-05	-2e-05	1e-05	-1e-05	-3e-05	-2e-05	1
2280	-1e-05	-1e-05	-2e-05	-2e-05	1e-05	-1e-05	-3e-05	-2e-05	1
2281	-4e-05	-2e-05	-1e-05	-2e-05	-8e-05	-0.00029	-3e-05	-1e-05	1
2282	-4e-05	-2e-05	-1e-05	-2e-05	-8e-05	-0.00029	-3e-05	-1e-05	1
2283	0	-1e-05	0	-2e-05	1e-05	6e-05	1e-05	0	1
2284	0	-1e-05	0	-2e-05	1e-05	6e-05	1e-05	0	1
2285	0	-1e-05	0	-2e-05	1e-05	6e-05	1e-05	0	1
2286	0	-1e-05	0	-2e-05	1e-05	6e-05	1e-05	0	1
2289	0	-1e-05	0	-2e-05	1e-05	6e-05	1e-05	0	1
2290	0	-1e-05	0	-2e-05	1e-05	6e-05	1e-05	0	1
2291	0	-1e-05	0	-2e-05	1e-05	6e-05	1e-05	0	1
2292	0	-1e-05	0	-2e-05	1e-05	6e-05	1e-05	0	1
2293	0	-1e-05	0	-2e-05	1e-05	6e-05	1e-05	0	1
2294	0	-1e-05	0	-2e-05	1e-05	6e-05	1e-05	0	1
2295	0	-1e-05	0	-2e-05	1e-05	6e-05	1e-05	0	1
2296	0	-1e-05	0	-2e-05	1e-05	6e-05	1e-05	0	1
2297	0	-1e-05	0	-2e-05	1e-05	6e-05	1e-05	0	1
2298	0	-1e-05	0	-2e-05	1e-05	6e-05	1e-05	0	1
2299	0	-1e-05	0	-2e-05	1e-05	6e-05	1e-05	0	1
2300	0	-1e-05	0	-2e-05	1e-05	6e-05	1e-05	0	1
2301	0	-1e-05	0	-2e-05	1e-05	6e-05	1e-05	0	1
2302	0	-1e-05	0	-2e-05	1e-05	6e-05	1e-05	0	1
2303	0	-1e-05	0	-2e-05	1e-05	6e-05	1e-05	0	1
2304	0	-1e-05	0	-2e-05	1e-05	6e-05	1e-05	0	1
2305	1e-05	-2e-05	-1e-05	-1e-05	-1e-05	-4e-05	-1e-05	1e-05	1
2306	-1e-05	-1e-05	0	-1e-05	-1e-05	4e-05	0	-1e-05	1
2307	-1e-05	-1e-05	0	-1e-05	-1e-05	4e-05	0	-1e-05	1
2308	-1e-05	-1e-05	0	-1e-05	-1e-05	4e-05	0	-1e-05	1
2309	-1e-05	-1e-05	0	-1e-05	-1e-05	4e-05	0	-1e-05	1
2310	-1e-05	-1e-05	0	-1e-05	-1e-05	4e-05	0	-1e-05	1
2311	-1e-05	-1e-05	0	-1e-05	-1e-05	4e-05	0	-1e-05	1
2312	-1e-05	-1e-05	0	-1e-05	-1e-05	4e-05	0	-1e-05	1
2313	-1e-05	-1e-05	0	-1e-05	-1e-05	4e-05	0	-1e-05	1
2314	-1e-05	-1e-05	0	-1e-05	-1e-05	4e-05	0	-1e-05	1
2315	-1e-05	-1e-05	0	-1e-05	-1e-05	4e-05	0	-1e-05	1
2316	-1e-05	-1e-05	0	-1e-05	-1e-05	4e-05	0	-1e-05	1
2317	-1e-05	-1e-05	0	2e-05	5e-05	-5e-05	-2e-05	0	1
2318	1e-05	-2e-05	1e-05	-2e-05	-2e-05	2e-05	-1e-05	1e-05	1
2319	1e-05	-2e-05	1e-05	-2e-05	-2e-05	2e-05	-1e-05	1e-05	1
2320	1e-05	-2e-05	1e-05	-2e-05	-2e-05	2e-05	-1e-05	1e-05	1
2321	1e-05	-2e-05	1e-05	-2e-05	-2e-05	2e-05	-1e-05	1e-05	1
2322	1e-05	-2e-05	1e-05	-2e-05	-2e-05	2e-05	-1e-05	1e-05	1
2323	1e-05	-2e-05	1e-05	-2e-05	-2e-05	2e-05	-1e-05	1e-05	1
2324	1e-05	-2e-05	1e-05	-2e-05	-2e-05	2e-05	-1e-05	1e-05	1
2325	1e-05	-2e-05	1e-05	-2e-05	-2e-05	2e-05	-1e-05	1e-05	1
2326	-1e-05	0	-3e-05	0	-2e-05	-6e-05	-1e-05	0	1
2327	0	1e-05	1e-05	0	-3e-05	-4e-05	-1e-05	1e-05	1
2328	0	1e-05	1e-05	0	-3e-05	-4e-05	-1e-05	1e-05	1
2329	0	1e-05	1e-05	0	-3e-05	-4e-05	-1e-05	1e-05	1
2330	0	1e-05	1e-05	0	-3e-05	-4e-05	-1e-05	1e-05	1
2331	0	1e-05	1e-05	0	-3e-05	-4e-05	-1e-05	1e-05	1
2332	0	1e-05	1e-05	0	-3e-05	-4e-05	-1e-05	1e-05	1
2333	0	1e-05	1e-05	0	-3e-05	-4e-05	-1e-05	1e-05	1
2334	0	1e-05	1e-05	0	-3e-05	-4e-05	-1e-05	1e-05	1
2335	0	1e-05	1e-05	0	-3e-05	-4e-05	-1e-05	1e-05	1
2337	0	1e-05	1e-05	0	-3e-05	-4e-05	-1e-05	1e-05	1
