time	channel1	channel2	channel3	channel4	channel5	channel6	channel7	channel8	class
1	1e-05	1e-05	1e-05	1e-05	-2e-05	0	0	0.00012	0
3	1e-05	1e-05	1e-05	1e-05	-2e-05	0	0	0.00012	0
4	1e-05	1e-05	1e-05	1e-05	-2e-05	0	0	0.00012	0
5	1e-05	1e-05	1e-05	1e-05	-2e-05	0	0	0.00012	0
6	1e-05	1e-05	1e-05	1e-05	-2e-05	0	0	0.00012	0
7	1e-05	1e-05	1e-05	1e-05	-2e-05	0	0	0.00012	0
8	1e-05	1e-05	1e-05	1e-05	-2e-05	0	0	0.00012	0
9	1e-05	1e-05	1e-05	1e-05	-2e-05	0	0	0.00012	0
10	1e-05	1e-05	1e-05	1e-05	-2e-05	0	0	0.00012	0
11	1e-05	1e-05	1e-05	1e-05	-2e-05	0	0	0.00012	0
12	1e-05	1e-05	1e-05	1e-05	-2e-05	0	0	0.00012	0
13	1e-05	1e-05	1e-05	1e-05	-2e-05	0	0	0.00012	0
14	1e-05	1e-05	1e-05	1e-05	-2e-05	0	0	0.00012	0
15	1e-05	1e-05	1e-05	1e-05	-2e-05	0	0	0.00012	0
16	0	-3e-05	-3e-05	-1e-05	-1e-05	-1e-05	-5e-05	1e-05	0
17	-2e-05	-2e-05	-3e-05	0	1e-05	-3e-05	-6e-05	-3e-05	0
18	-2e-05	-2e-05	-3e-05	0	1e-05	-3e-05	-6e-05	-3e-05	0
19	-2e-05	-2e-05	-3e-05	0	1e-05	-3e-05	-6e-05	-3e-05	0
20	-2e-05	-2e-05	-3e-05	0	1e-05	-3e-05	-6e-05	-3e-05	0
21	-2e-05	-2e-05	-3e-05	0	1e-05	-3e-05	-6e-05	-3e-05	0
22	-2e-05	-2e-05	-3e-05	0	1e-05	-3e-05	-6e-05	-3e-05	0
23	-2e-05	-2e-05	-3e-05	0	1e-05	-3e-05	-6e-05	-3e-05	0
24	-2e-05	-2e-05	-3e-05	0	1e-05	-3e-05	-6e-05	-3e-05	0
25	-2e-05	-2e-05	-3e-05	0	1e-05	-3e-05	-6e-05	-3e-05	0
26	-2e-05	-2e-05	-3e-05	0	1e-05	-3e-05	-6e-05	-3e-05	0
27	-2e-05	-2e-05	-3e-05	0	1e-05	-3e-05	-6e-05	-3e-05	0
28	-2e-05	-2e-05	-3e-05	0	1e-05	-3e-05	-6e-05	-3e-05	0
29	-2e-05	-2e-05	-3e-05	0	1e-05	-3e-05	-6e-05	-3e-05	0
30	-2e-05	-2e-05	-3e-05	0	1e-05	-3e-05	-6e-05	-3e-05	0
31	-2e-05	-2e-05	-3e-05	0	1e-05	-3e-05	-6e-05	-3e-05	0
32	-2e-05	-2e-05	-3e-05	0	1e-05	-3e-05	-6e-05	-3e-05	0
33	-2e-05	-2e-05	-3e-05	0	1e-05	-3e-05	-6e-05	-3e-05	0
34	-2e-05	-2e-05	-3e-05	0	1e-05	-3e-05	-6e-05	-3e-05	0
35	-2e-05	-2e-05	-3e-05	0	1e-05	-3e-05	-6e-05	-3e-05	0
39	-2e-05	-2e-05	-3e-05	0	1e-05	-3e-05	-6e-05	-3e-05	0
40	1e-05	-2e-05	0	1e-05	-1e-05	-2e-05	-5e-05	-7e-05	0
41	1e-05	-2e-05	0	1e-05	-1e-05	-2e-05	-5e-05	-7e-05	0
42	1e-05	-2e-05	0	1e-05	-1e-05	-2e-05	-5e-05	-7e-05	0
43	1e-05	-2e-05	0	1e-05	-1e-05	-2e-05	-5e-05	-7e-05	0
44	1e-05	-2e-05	0	1e-05	-1e-05	-2e-05	-5e-05	-7e-05	0
45	1e-05	-2e-05	0	1e-05	-1e-05	-2e-05	-5e-05	-7e-05	0
46	1e-05	-2e-05	0	1e-05	-1e-05	-2e-05	-5e-05	-7e-05	0
47	1e-05	-2e-05	0	1e-05	-1e-05	-2e-05	-5e-05	-7e-05	0
48	1e-05	-2e-05	0	1e-05	-1e-05	-2e-05	-5e-05	-7e-05	0
49	1e-05	-2e-05	0	1e-05	-1e-05	-2e-05	-5e-05	-7e-05	0
50	1e-05	-2e-05	0	1e-05	-1e-05	-2e-05	-5e-05	-7e-05	0
51	1e-05	-2e-05	0	1e-05	-1e-05	-2e-05	-5e-05	-7e-05	0
52	1e-05	-2e-05	0	1e-05	-1e-05	-2e-05	-5e-05	-7e-05	0
53	3e-05	1e-05	0	-3e-05	0	-1e-05	-1e-05	0.00014	0
54	3e-05	1e-05	0	-3e-05	0	-1e-05	-1e-05	0.00014	0
55	-3e-05	-1e-05	0	-2e-05	-3e-05	-1e-05	-1e-05	0	0
56	-3e-05	-1e-05	0	-2e-05	-3e-05	-1e-05	-1e-05	0	0
57	-3e-05	-1e-05	0	-2e-05	-3e-05	-1e-05	-1e-05	0	0
58	-3e-05	-1e-05	0	-2e-05	-3e-05	-1e-05	-1e-05	0	0
59	-3e-05	-1e-05	0	-2e-05	-3e-05	-1e-05	-1e-05	0	0
60	-3e-05	-1e-05	0	-2e-05	-3e-05	-1e-05	-1e-05	0	0
61	-3e-05	-1e-05	0	-2e-05	-3e-05	-1e-05	-1e-05	0	0
62	-3e-05	-1e-05	0	-2e-05	-3e-05	-1e-05	-1e-05	0	0
63	-3e-05	-1e-05	0	-2e-05	-3e-05	-1e-05	-1e-05	0	0
64	-3e-05	-1e-05	0	-2e-05	-3e-05	-1e-05	-1e-05	0	0
65	-3e-05	-1e-05	0	-2e-05	-3e-05	-1e-05	-1e-05	0	0
66	-3e-05	-1e-05	0	-2e-05	-3e-05	-1e-05	-1e-05	0	0
67	-3e-05	-1e-05	0	-2e-05	-3e-05	-1e-05	-1e-05	0	0
68	-3e-05	-1e-05	0	-2e-05	-3e-05	-1e-05	-1e-05	0	0
69	-3e-05	-1e-05	0	-2e-05	-3e-05	-1e-05	-1e-05	0	0
70	-3e-05	-1e-05	0	-2e-05	-3e-05	-1e-05	-1e-05	0	0
71	-3e-05	-1e-05	0	-2e-05	-3e-05	-1e-05	-1e-05	0	0
72	-3e-05	-1e-05	0	-2e-05	-3e-05	-1e-05	-1e-05	0	0
73	-3e-05	-1e-05	0	-2e-05	-3e-05	-1e-05	-1e-05	0	0
74	-3e-05	-1e-05	0	-2e-05	-3e-05	-1e-05	-1e-05	0	0
75	-1e-05	0	-2e-05	-1e-05	-1e-05	-1e-05	-1e-05	-9e-05	0
76	2e-05	0	1e-05	0	-1e-05	-1e-05	-1e-05	-1e-05	0
77	1e-05	1e-05	1e-05	-1e-05	-2e-05	-3e-05	-7e-05	-5e-05	0
78	1e-05	1e-05	1e-05	-1e-05	-2e-05	-3e-05	-7e-05	-5e-05	0
79	1e-05	1e-05	1e-05	-1e-05	-2e-05	-3e-05	-7e-05	-5e-05	0
80	1e-05	1e-05	1e-05	-1e-05	-2e-05	-3e-05	-7e-05	-5e-05	0
81	1e-05	1e-05	1e-05	-1e-05	-2e-05	-3e-05	-7e-05	-5e-05	0
82	1e-05	1e-05	1e-05	-1e-05	-2e-05	-3e-05	-7e-05	-5e-05	0
83	1e-05	1e-05	1e-05	-1e-05	-2e-05	-3e-05	-7e-05	-5e-05	0
84	1e-05	1e-05	1e-05	-1e-05	-2e-05	-3e-05	-7e-05	-5e-05	0
85	1e-05	1e-05	1e-05	-1e-05	-2e-05	-3e-05	-7e-05	-5e-05	0
86	1e-05	1e-05	1e-05	-1e-05	-2e-05	-3e-05	-7e-05	-5e-05	0
88	1e-05	1e-05	1e-05	-1e-05	-2e-05	-3e-05	-7e-05	-5e-05	0
89	1e-05	1e-05	1e-05	-1e-05	-2e-05	-3e-05	-7e-05	-5e-05	0
90	1e-05	1e-05	1e-05	-1e-05	-2e-05	-3e-05	-7e-05	-5e-05	0
91	1e-05	1e-05	1e-05	-1e-05	-2e-05	-3e-05	-7e-05	-5e-05	0
92	1e-05	1e-05	1e-05	-1e-05	-2e-05	-3e-05	-7e-05	-5e-05	0
93	1e-05	1e-05	1e-05	-1e-05	-2e-05	-3e-05	-7e-05	-5e-05	0
94	1e-05	1e-05	1e-05	-1e-05	-2e-05	-3e-05	-7e-05	-5e-05	0
95	1e-05	1e-05	1e-05	-1e-05	-2e-05	-3e-05	-7e-05	-5e-05	0
96	1e-05	1e-05	1e-05	-1e-05	-2e-05	-3e-05	-7e-05	-5e-05	0
97	1e-05	1e-05	1e-05	-1e-05	-2e-05	-3e-05	-7e-05	-5e-05	0
98	-2e-05	1e-05	-1e-05	1e-05	-1e-05	-3e-05	-2e-05	-2e-05	0
99	-2e-05	1e-05	-1e-05	1e-05	-1e-05	-3e-05	-2e-05	-2e-05	0
100	0	-5e-05	-6e-05	-3e-05	-2e-05	1e-05	-1e-05	0.00019	0
101	0	-5e-05	-6e-05	-3e-05	-2e-05	1e-05	-1e-05	0.00019	0
102	0	-5e-05	-6e-05	-3e-05	-2e-05	1e-05	-1e-05	0.00019	0
103	0	-5e-05	-6e-05	-3e-05	-2e-05	1e-05	-1e-05	0.00019	0
104	0	-5e-05	-6e-05	-3e-05	-2e-05	1e-05	-1e-05	0.00019	0
105	0	-5e-05	-6e-05	-3e-05	-2e-05	1e-05	-1e-05	0.00019	0
106	0	-5e-05	-6e-05	-3e-05	-2e-05	1e-05	-1e-05	0.00019	0
107	0	-5e-05	-6e-05	-3e-05	-2e-05	1e-05	-1e-05	0.00019	0
108	0	-5e-05	-6e-05	-3e-05	-2e-05	1e-05	-1e-05	0.00019	0
109	0	-5e-05	-6e-05	-3e-05	-2e-05	1e-05	-1e-05	0.00019	0
110	0	-5e-05	-6e-05	-3e-05	-2e-05	1e-05	-1e-05	0.00019	0
111	0	-5e-05	-6e-05	-3e-05	-2e-05	1e-05	-1e-05	0.00019	0
112	-1e-05	-2e-05	0	4e-05	0	1e-05	-5e-05	-3e-05	0
113	-1e-05	-2e-05	0	4e-05	0	1e-05	-5e-05	-3e-05	0
114	-1e-05	-2e-05	0	4e-05	0	1e-05	-5e-05	-3e-05	0
115	-1e-05	-2e-05	0	4e-05	0	1e-05	-5e-05	-3e-05	0
116	-1e-05	-2e-05	0	4e-05	0	1e-05	-5e-05	-3e-05	0
117	-1e-05	-2e-05	0	4e-05	0	1e-05	-5e-05	-3e-05	0
118	-1e-05	-2e-05	0	4e-05	0	1e-05	-5e-05	-3e-05	0
119	-7e-05	0	1e-05	0	-1e-05	0	-2e-05	-0.00015	0
120	-7e-05	0	1e-05	0	-1e-05	0	-2e-05	-0.00015	0
121	-7e-05	0	1e-05	0	-1e-05	0	-2e-05	-0.00015	0
122	-7e-05	0	1e-05	0	-1e-05	0	-2e-05	-0.00015	0
123	-7e-05	0	1e-05	0	-1e-05	0	-2e-05	-0.00015	0
124	-7e-05	0	1e-05	0	-1e-05	0	-2e-05	-0.00015	0
125	-7e-05	0	1e-05	0	-1e-05	0	-2e-05	-0.00015	0
126	-7e-05	0	1e-05	0	-1e-05	0	-2e-05	-0.00015	0
127	-7e-05	0	1e-05	0	-1e-05	0	-2e-05	-0.00015	0
128	-7e-05	0	1e-05	0	-1e-05	0	-2e-05	-0.00015	0
129	-7e-05	0	1e-05	0	-1e-05	0	-2e-05	-0.00015	0
130	-7e-05	0	1e-05	0	-1e-05	0	-2e-05	-0.00015	0
131	-7e-05	0	1e-05	0	-1e-05	0	-2e-05	-0.00015	0
132	-7e-05	0	1e-05	0	-1e-05	0	-2e-05	-0.00015	0
133	-7e-05	0	1e-05	0	-1e-05	0	-2e-05	-0.00015	0
134	-7e-05	0	1e-05	0	-1e-05	0	-2e-05	-0.00015	0
135	-7e-05	0	1e-05	0	-1e-05	0	-2e-05	-0.00015	0
136	4e-05	-1e-05	-2e-05	-3e-05	-2e-05	0	-4e-05	-2e-05	0
138	1e-05	-3e-05	5e-05	2e-05	0	0	-8e-05	-0.00014	0
139	1e-05	-3e-05	5e-05	2e-05	0	0	-8e-05	-0.00014	0
140	1e-05	-3e-05	5e-05	2e-05	0	0	-8e-05	-0.00014	0
141	1e-05	-3e-05	5e-05	2e-05	0	0	-8e-05	-0.00014	0
142	1e-05	-3e-05	5e-05	2e-05	0	0	-8e-05	-0.00014	0
143	1e-05	-3e-05	5e-05	2e-05	0	0	-8e-05	-0.00014	0
144	1e-05	-3e-05	5e-05	2e-05	0	0	-8e-05	-0.00014	0
145	1e-05	-3e-05	5e-05	2e-05	0	0	-8e-05	-0.00014	0
146	1e-05	-3e-05	5e-05	2e-05	0	0	-8e-05	-0.00014	0
147	1e-05	-3e-05	5e-05	2e-05	0	0	-8e-05	-0.00014	0
148	1e-05	-3e-05	5e-05	2e-05	0	0	-8e-05	-0.00014	0
149	1e-05	-3e-05	5e-05	2e-05	0	0	-8e-05	-0.00014	0
150	1e-05	-3e-05	5e-05	2e-05	0	0	-8e-05	-0.00014	0
151	1e-05	-3e-05	5e-05	2e-05	0	0	-8e-05	-0.00014	0
152	1e-05	-3e-05	5e-05	2e-05	0	0	-8e-05	-0.00014	0
153	1e-05	-3e-05	5e-05	2e-05	0	0	-8e-05	-0.00014	0
154	1e-05	-3e-05	5e-05	2e-05	0	0	-8e-05	-0.00014	0
155	1e-05	-3e-05	5e-05	2e-05	0	0	-8e-05	-0.00014	0
156	1e-05	-3e-05	5e-05	2e-05	0	0	-8e-05	-0.00014	0
157	1e-05	-3e-05	5e-05	2e-05	0	0	-8e-05	-0.00014	0
158	-3e-05	-1e-05	-2e-05	-1e-05	0	-2e-05	-7e-05	-3e-05	0
159	-3e-05	-1e-05	-2e-05	-1e-05	0	-2e-05	-7e-05	-3e-05	0
160	0	0	-1e-05	0	0	-2e-05	-4e-05	5e-05	0
161	0	0	-1e-05	0	0	-2e-05	-4e-05	5e-05	0
162	0	0	-1e-05	0	0	-2e-05	-4e-05	5e-05	0
163	0	0	-1e-05	0	0	-2e-05	-4e-05	5e-05	0
164	0	0	-1e-05	0	0	-2e-05	-4e-05	5e-05	0
165	0	0	-1e-05	0	0	-2e-05	-4e-05	5e-05	0
166	0	0	-1e-05	0	0	-2e-05	-4e-05	5e-05	0
167	0	0	-1e-05	0	0	-2e-05	-4e-05	5e-05	0
168	0	0	-1e-05	0	0	-2e-05	-4e-05	5e-05	0
169	0	0	-1e-05	0	0	-2e-05	-4e-05	5e-05	0
170	0	0	-1e-05	0	0	-2e-05	-4e-05	5e-05	0
171	0	0	-1e-05	0	0	-2e-05	-4e-05	5e-05	0
172	-1e-05	-3e-05	-2e-05	-1e-05	-3e-05	-1e-05	0.0001	-0.00023	0
173	-1e-05	0	-2e-05	-1e-05	-2e-05	-2e-05	1e-05	2e-05	0
174	-1e-05	0	-2e-05	-1e-05	-2e-05	-2e-05	1e-05	2e-05	0
175	-1e-05	0	-2e-05	-1e-05	-2e-05	-2e-05	1e-05	2e-05	0
176	-1e-05	0	-2e-05	-1e-05	-2e-05	-2e-05	1e-05	2e-05	0
177	-1e-05	0	-2e-05	-1e-05	-2e-05	-2e-05	1e-05	2e-05	0
178	-1e-05	0	-2e-05	-1e-05	-2e-05	-2e-05	1e-05	2e-05	0
179	-1e-05	-3e-05	-5e-05	-1e-05	-2e-05	-1e-05	0	1e-05	0
180	-1e-05	-3e-05	-5e-05	-1e-05	-2e-05	-1e-05	0	1e-05	0
181	-1e-05	-3e-05	-5e-05	-1e-05	-2e-05	-1e-05	0	1e-05	0
182	-1e-05	-3e-05	-5e-05	-1e-05	-2e-05	-1e-05	0	1e-05	0
183	-1e-05	-3e-05	-5e-05	-1e-05	-2e-05	-1e-05	0	1e-05	0
184	-1e-05	-3e-05	-5e-05	-1e-05	-2e-05	-1e-05	0	1e-05	0
185	-1e-05	-3e-05	-5e-05	-1e-05	-2e-05	-1e-05	0	1e-05	0
186	-1e-05	-3e-05	-5e-05	-1e-05	-2e-05	-1e-05	0	1e-05	0
188	-1e-05	-3e-05	-5e-05	-1e-05	-2e-05	-1e-05	0	1e-05	0
189	-1e-05	-3e-05	-5e-05	-1e-05	-2e-05	-1e-05	0	1e-05	0
190	-1e-05	-3e-05	-5e-05	-1e-05	-2e-05	-1e-05	0	1e-05	0
191	-1e-05	-3e-05	-5e-05	-1e-05	-2e-05	-1e-05	0	1e-05	0
192	-1e-05	-3e-05	-5e-05	-1e-05	-2e-05	-1e-05	0	1e-05	0
193	-1e-05	-3e-05	-5e-05	-1e-05	-2e-05	-1e-05	0	1e-05	0
194	-1e-05	-3e-05	-5e-05	-1e-05	-2e-05	-1e-05	0	1e-05	0
195	-1e-05	-3e-05	-5e-05	-1e-05	-2e-05	-1e-05	0	1e-05	0
196	-1e-05	-1e-05	0	-2e-05	-1e-05	1e-05	3e-05	-5e-05	0
197	1e-05	-2e-05	-1e-05	0	-3e-05	2e-05	1e-05	1e-05	0
198	-1e-05	1e-05	-1e-05	-2e-05	0	-3e-05	-2e-05	-3e-05	0
199	-1e-05	1e-05	-1e-05	-2e-05	0	-3e-05	-2e-05	-3e-05	0
200	-1e-05	1e-05	-1e-05	-2e-05	0	-3e-05	-2e-05	-3e-05	0
201	-1e-05	1e-05	-1e-05	-2e-05	0	-3e-05	-2e-05	-3e-05	0
202	-1e-05	1e-05	-1e-05	-2e-05	0	-3e-05	-2e-05	-3e-05	0
203	-1e-05	1e-05	-1e-05	-2e-05	0	-3e-05	-2e-05	-3e-05	0
204	-1e-05	1e-05	-1e-05	-2e-05	0	-3e-05	-2e-05	-3e-05	0
205	-1e-05	1e-05	-1e-05	-2e-05	0	-3e-05	-2e-05	-3e-05	0
206	-1e-05	1e-05	-1e-05	-2e-05	0	-3e-05	-2e-05	-3e-05	0
207	-1e-05	1e-05	-1e-05	-2e-05	0	-3e-05	-2e-05	-3e-05	0
208	-1e-05	1e-05	-1e-05	-2e-05	0	-3e-05	-2e-05	-3e-05	0
209	-1e-05	1e-05	-1e-05	-2e-05	0	-3e-05	-2e-05	-3e-05	0
210	-1e-05	1e-05	-1e-05	-2e-05	0	-3e-05	-2e-05	-3e-05	0
211	-1e-05	1e-05	-1e-05	-2e-05	0	-3e-05	-2e-05	-3e-05	0
212	-1e-05	1e-05	-1e-05	-2e-05	0	-3e-05	-2e-05	-3e-05	0
213	-1e-05	1e-05	-1e-05	-2e-05	0	-3e-05	-2e-05	-3e-05	0
214	-1e-05	1e-05	-1e-05	-2e-05	0	-3e-05	-2e-05	-3e-05	0
215	-1e-05	1e-05	-1e-05	-2e-05	0	-3e-05	-2e-05	-3e-05	0
216	-1e-05	1e-05	-1e-05	-2e-05	0	-3e-05	-2e-05	-3e-05	0
217	-1e-05	1e-05	-1e-05	-2e-05	0	-3e-05	-2e-05	-3e-05	0
218	-2e-05	-1e-05	-3e-05	-2e-05	2e-05	-2e-05	-1e-05	3e-05	0
219	-2e-05	-1e-05	-3e-05	-2e-05	2e-05	-2e-05	-1e-05	3e-05	0
220	-1e-05	-1e-05	-2e-05	0	0	-3e-05	-1e-05	0	0
221	-1e-05	-1e-05	-2e-05	0	0	-3e-05	-1e-05	0	0
222	-1e-05	-1e-05	-2e-05	0	0	-3e-05	-1e-05	0	0
223	-1e-05	-1e-05	-2e-05	0	0	-3e-05	-1e-05	0	0
224	-1e-05	-1e-05	-2e-05	0	0	-3e-05	-1e-05	0	0
225	-1e-05	-1e-05	-2e-05	0	0	-3e-05	-1e-05	0	0
226	-1e-05	-1e-05	-2e-05	0	0	-3e-05	-1e-05	0	0
227	-1e-05	-1e-05	-2e-05	0	0	-3e-05	-1e-05	0	0
228	-1e-05	-1e-05	-2e-05	0	0	-3e-05	-1e-05	0	0
229	-1e-05	-1e-05	-2e-05	0	0	-3e-05	-1e-05	0	0
230	-1e-05	-1e-05	-2e-05	0	0	-3e-05	-1e-05	0	0
231	-1e-05	-1e-05	-2e-05	0	0	-3e-05	-1e-05	0	0
232	-2e-05	1e-05	0	0	-2e-05	0	4e-05	-0.00012	0
233	-2e-05	1e-05	0	0	-2e-05	0	4e-05	-0.00012	0
234	-2e-05	1e-05	0	0	-2e-05	0	4e-05	-0.00012	0
235	-2e-05	1e-05	0	0	-2e-05	0	4e-05	-0.00012	0
236	-2e-05	1e-05	0	0	-2e-05	0	4e-05	-0.00012	0
238	-2e-05	1e-05	0	0	-2e-05	0	4e-05	-0.00012	0
239	-2e-05	1e-05	0	0	-2e-05	0	4e-05	-0.00012	0
240	-2e-05	1e-05	0	0	-2e-05	0	4e-05	-0.00012	0
241	-1e-05	-1e-05	-3e-05	0	-2e-05	-1e-05	0	-2e-05	0
242	-1e-05	-1e-05	-3e-05	0	-2e-05	-1e-05	0	-2e-05	0
243	-1e-05	-1e-05	-3e-05	0	-2e-05	-1e-05	0	-2e-05	0
244	-1e-05	-1e-05	-3e-05	0	-2e-05	-1e-05	0	-2e-05	0
245	-1e-05	-1e-05	-3e-05	0	-2e-05	-1e-05	0	-2e-05	0
246	-1e-05	-1e-05	-3e-05	0	-2e-05	-1e-05	0	-2e-05	0
247	-1e-05	-1e-05	-3e-05	0	-2e-05	-1e-05	0	-2e-05	0
248	-1e-05	-1e-05	-3e-05	0	-2e-05	-1e-05	0	-2e-05	0
249	-1e-05	-1e-05	-3e-05	0	-2e-05	-1e-05	0	-2e-05	0
250	-1e-05	-1e-05	-3e-05	0	-2e-05	-1e-05	0	-2e-05	0
251	-1e-05	-1e-05	-3e-05	0	-2e-05	-1e-05	0	-2e-05	0
252	-1e-05	-1e-05	-3e-05	0	-2e-05	-1e-05	0	-2e-05	0
253	-1e-05	-1e-05	-3e-05	0	-2e-05	-1e-05	0	-2e-05	0
254	-1e-05	-1e-05	-3e-05	0	-2e-05	-1e-05	0	-2e-05	0
255	-1e-05	-1e-05	-3e-05	0	-2e-05	-1e-05	0	-2e-05	0
256	-2e-05	-3e-05	5e-05	1e-05	1e-05	1e-05	8e-05	3e-05	0
257	-3e-05	-4e-05	-5e-05	-4e-05	-1e-05	-1e-05	-0.00012	-8e-05	0
258	-3e-05	-4e-05	-5e-05	-4e-05	-1e-05	-1e-05	-0.00012	-8e-05	0
259	-3e-05	-4e-05	-5e-05	-4e-05	-1e-05	-1e-05	-0.00012	-8e-05	0
260	-3e-05	-4e-05	-5e-05	-4e-05	-1e-05	-1e-05	-0.00012	-8e-05	0
261	-3e-05	-4e-05	-5e-05	-4e-05	-1e-05	-1e-05	-0.00012	-8e-05	0
262	-3e-05	-4e-05	-5e-05	-4e-05	-1e-05	-1e-05	-0.00012	-8e-05	0
263	-3e-05	-4e-05	-5e-05	-4e-05	-1e-05	-1e-05	-0.00012	-8e-05	0
264	-3e-05	-4e-05	-5e-05	-4e-05	-1e-05	-1e-05	-0.00012	-8e-05	0
265	-3e-05	-4e-05	-5e-05	-4e-05	-1e-05	-1e-05	-0.00012	-8e-05	0
266	-3e-05	-4e-05	-5e-05	-4e-05	-1e-05	-1e-05	-0.00012	-8e-05	0
267	-3e-05	-4e-05	-5e-05	-4e-05	-1e-05	-1e-05	-0.00012	-8e-05	0
268	-3e-05	-4e-05	-5e-05	-4e-05	-1e-05	-1e-05	-0.00012	-8e-05	0
269	-3e-05	-4e-05	-5e-05	-4e-05	-1e-05	-1e-05	-0.00012	-8e-05	0
270	-3e-05	-4e-05	-5e-05	-4e-05	-1e-05	-1e-05	-0.00012	-8e-05	0
271	-3e-05	-4e-05	-5e-05	-4e-05	-1e-05	-1e-05	-0.00012	-8e-05	0
272	-3e-05	-4e-05	-5e-05	-4e-05	-1e-05	-1e-05	-0.00012	-8e-05	0
273	-3e-05	-4e-05	-5e-05	-4e-05	-1e-05	-1e-05	-0.00012	-8e-05	0
274	-3e-05	-4e-05	-5e-05	-4e-05	-1e-05	-1e-05	-0.00012	-8e-05	0
275	-3e-05	-4e-05	-5e-05	-4e-05	-1e-05	-1e-05	-0.00012	-8e-05	0
276	-3e-05	-4e-05	-5e-05	-4e-05	-1e-05	-1e-05	-0.00012	-8e-05	0
277	-3e-05	-4e-05	-5e-05	-4e-05	-1e-05	-1e-05	-0.00012	-8e-05	0
278	-3e-05	-3e-05	-2e-05	-2e-05	-1e-05	2e-05	2e-05	2e-05	0
279	-3e-05	-3e-05	-2e-05	-2e-05	-1e-05	2e-05	2e-05	2e-05	0
280	2e-05	0	0	-1e-05	-3e-05	0	2e-05	0	0
281	2e-05	0	0	-1e-05	-3e-05	0	2e-05	0	0
282	2e-05	0	0	-1e-05	-3e-05	0	2e-05	0	0
283	2e-05	0	0	-1e-05	-3e-05	0	2e-05	0	0
284	2e-05	0	0	-1e-05	-3e-05	0	2e-05	0	0
285	2e-05	0	0	-1e-05	-3e-05	0	2e-05	0	0
286	2e-05	0	0	-1e-05	-3e-05	0	2e-05	0	0
288	2e-05	0	0	-1e-05	-3e-05	0	2e-05	0	0
289	2e-05	0	0	-1e-05	-3e-05	0	2e-05	0	0
290	2e-05	0	0	-1e-05	-3e-05	0	2e-05	0	0
291	2e-05	0	0	-1e-05	-3e-05	0	2e-05	0	0
292	2e-05	0	0	-1e-05	-3e-05	0	2e-05	0	0
293	-3e-05	-1e-05	-4e-05	0	-3e-05	-2e-05	-6e-05	-2e-05	0
294	-3e-05	-1e-05	-4e-05	0	-3e-05	-2e-05	-6e-05	-2e-05	0
295	-3e-05	-1e-05	-4e-05	0	-3e-05	-2e-05	-6e-05	-2e-05	0
296	-3e-05	-1e-05	-4e-05	0	-3e-05	-2e-05	-6e-05	-2e-05	0
297	-3e-05	-1e-05	-4e-05	0	-3e-05	-2e-05	-6e-05	-2e-05	0
298	-3e-05	-1e-05	-4e-05	0	-3e-05	-2e-05	-6e-05	-2e-05	0
299	2e-05	2e-05	2e-05	-3e-05	2e-05	1e-05	1e-05	1e-05	0
300	2e-05	2e-05	2e-05	-3e-05	2e-05	1e-05	1e-05	1e-05	0
301	2e-05	2e-05	2e-05	-3e-05	2e-05	1e-05	1e-05	1e-05	0
302	2e-05	2e-05	2e-05	-3e-05	2e-05	1e-05	1e-05	1e-05	0
303	2e-05	2e-05	2e-05	-3e-05	2e-05	1e-05	1e-05	1e-05	0
304	2e-05	2e-05	2e-05	-3e-05	2e-05	1e-05	1e-05	1e-05	0
305	2e-05	2e-05	2e-05	-3e-05	2e-05	1e-05	1e-05	1e-05	0
306	2e-05	2e-05	2e-05	-3e-05	2e-05	1e-05	1e-05	1e-05	0
307	2e-05	2e-05	2e-05	-3e-05	2e-05	1e-05	1e-05	1e-05	0
308	2e-05	2e-05	2e-05	-3e-05	2e-05	1e-05	1e-05	1e-05	0
309	2e-05	2e-05	2e-05	-3e-05	2e-05	1e-05	1e-05	1e-05	0
310	2e-05	2e-05	2e-05	-3e-05	2e-05	1e-05	1e-05	1e-05	0
311	2e-05	2e-05	2e-05	-3e-05	2e-05	1e-05	1e-05	1e-05	0
312	2e-05	2e-05	2e-05	-3e-05	2e-05	1e-05	1e-05	1e-05	0
313	2e-05	2e-05	2e-05	-3e-05	2e-05	1e-05	1e-05	1e-05	0
314	2e-05	2e-05	2e-05	-3e-05	2e-05	1e-05	1e-05	1e-05	0
315	0	-2e-05	-2e-05	-3e-05	-2e-05	-1e-05	0	-3e-05	0
316	-2e-05	0	-1e-05	1e-05	-1e-05	-2e-05	-3e-05	0	0
317	0	-1e-05	-1e-05	-3e-05	-2e-05	1e-05	-1e-05	1e-05	0
318	0	-1e-05	-1e-05	-3e-05	-2e-05	1e-05	-1e-05	1e-05	0
319	0	-1e-05	-1e-05	-3e-05	-2e-05	1e-05	-1e-05	1e-05	0
320	0	-1e-05	-1e-05	-3e-05	-2e-05	1e-05	-1e-05	1e-05	0
321	0	-1e-05	-1e-05	-3e-05	-2e-05	1e-05	-1e-05	1e-05	0
322	0	-1e-05	-1e-05	-3e-05	-2e-05	1e-05	-1e-05	1e-05	0
323	0	-1e-05	-1e-05	-3e-05	-2e-05	1e-05	-1e-05	1e-05	0
324	0	-1e-05	-1e-05	-3e-05	-2e-05	1e-05	-1e-05	1e-05	0
325	0	-1e-05	-1e-05	-3e-05	-2e-05	1e-05	-1e-05	1e-05	0
326	0	-1e-05	-1e-05	-3e-05	-2e-05	1e-05	-1e-05	1e-05	0
327	0	-1e-05	-1e-05	-3e-05	-2e-05	1e-05	-1e-05	1e-05	0
328	0	-1e-05	-1e-05	-3e-05	-2e-05	1e-05	-1e-05	1e-05	0
329	0	-1e-05	-1e-05	-3e-05	-2e-05	1e-05	-1e-05	1e-05	0
330	0	-1e-05	-1e-05	-3e-05	-2e-05	1e-05	-1e-05	1e-05	0
331	0	-1e-05	-1e-05	-3e-05	-2e-05	1e-05	-1e-05	1e-05	0
332	0	-1e-05	-1e-05	-3e-05	-2e-05	1e-05	-1e-05	1e-05	0
333	0	-1e-05	-1e-05	-3e-05	-2e-05	1e-05	-1e-05	1e-05	0
334	0	-1e-05	-1e-05	-3e-05	-2e-05	1e-05	-1e-05	1e-05	0
335	0	-1e-05	-1e-05	-3e-05	-2e-05	1e-05	-1e-05	1e-05	0
336	0	-1e-05	-1e-05	-3e-05	-2e-05	1e-05	-1e-05	1e-05	0
337	0	-1e-05	-1e-05	-3e-05	-2e-05	1e-05	-1e-05	1e-05	0
338	-1e-05	-3e-05	-3e-05	-3e-05	-2e-05	-1e-05	-3e-05	-2e-05	0
339	-1e-05	-3e-05	-3e-05	-3e-05	-2e-05	-1e-05	-3e-05	-2e-05	0
340	-3e-05	1e-05	1e-05	1e-05	-2e-05	-2e-05	1e-05	0	0
341	-3e-05	1e-05	1e-05	1e-05	-2e-05	-2e-05	1e-05	0	0
342	-3e-05	1e-05	1e-05	1e-05	-2e-05	-2e-05	1e-05	0	0
343	-3e-05	1e-05	1e-05	1e-05	-2e-05	-2e-05	1e-05	0	0
344	-3e-05	1e-05	1e-05	1e-05	-2e-05	-2e-05	1e-05	0	0
346	-3e-05	1e-05	1e-05	1e-05	-2e-05	-2e-05	1e-05	0	0
347	-3e-05	1e-05	1e-05	1e-05	-2e-05	-2e-05	1e-05	0	0
348	-3e-05	1e-05	1e-05	1e-05	-2e-05	-2e-05	1e-05	0	0
349	-3e-05	1e-05	1e-05	1e-05	-2e-05	-2e-05	1e-05	0	0
350	-3e-05	1e-05	1e-05	1e-05	-2e-05	-2e-05	1e-05	0	0
351	-3e-05	1e-05	1e-05	1e-05	-2e-05	-2e-05	1e-05	0	0
352	0	-2e-05	0	-3e-05	-2e-05	-3e-05	-6e-05	-4e-05	0
353	1e-05	-2e-05	-3e-05	-2e-05	2e-05	-2e-05	5e-05	0.00012	0
354	1e-05	-2e-05	-3e-05	-2e-05	2e-05	-2e-05	5e-05	0.00012	0
355	1e-05	-2e-05	-3e-05	-2e-05	2e-05	-2e-05	5e-05	0.00012	0
356	1e-05	-2e-05	-3e-05	-2e-05	2e-05	-2e-05	5e-05	0.00012	0
357	1e-05	-2e-05	-3e-05	-2e-05	2e-05	-2e-05	5e-05	0.00012	0
358	1e-05	-2e-05	-3e-05	-2e-05	2e-05	-2e-05	5e-05	0.00012	0
359	-2e-05	-3e-05	0	-2e-05	2e-05	0	9e-05	0.00013	0
360	-2e-05	-3e-05	0	-2e-05	2e-05	0	9e-05	0.00013	0
361	-2e-05	-3e-05	0	-2e-05	2e-05	0	9e-05	0.00013	0
362	-2e-05	-3e-05	0	-2e-05	2e-05	0	9e-05	0.00013	0
363	-2e-05	-3e-05	0	-2e-05	2e-05	0	9e-05	0.00013	0
364	-2e-05	-3e-05	0	-2e-05	2e-05	0	9e-05	0.00013	0
365	-2e-05	-3e-05	0	-2e-05	2e-05	0	9e-05	0.00013	0
366	-2e-05	-3e-05	0	-2e-05	2e-05	0	9e-05	0.00013	0
367	-2e-05	-3e-05	0	-2e-05	2e-05	0	9e-05	0.00013	0
368	-2e-05	-3e-05	0	-2e-05	2e-05	0	9e-05	0.00013	0
369	-2e-05	-3e-05	0	-2e-05	2e-05	0	9e-05	0.00013	0
370	-2e-05	-3e-05	0	-2e-05	2e-05	0	9e-05	0.00013	0
371	-2e-05	-3e-05	0	-2e-05	2e-05	0	9e-05	0.00013	0
372	-2e-05	-3e-05	0	-2e-05	2e-05	0	9e-05	0.00013	0
373	-2e-05	-3e-05	0	-2e-05	2e-05	0	9e-05	0.00013	0
374	-2e-05	-3e-05	0	-2e-05	2e-05	0	9e-05	0.00013	0
375	-1e-05	-1e-05	-2e-05	-3e-05	-3e-05	-4e-05	0	5e-05	0
376	-1e-05	-1e-05	-2e-05	-3e-05	-3e-05	-4e-05	0	5e-05	0
377	-1e-05	0	-1e-05	2e-05	0	-3e-05	0	-0.00011	0
378	-1e-05	0	-1e-05	2e-05	0	-3e-05	0	-0.00011	0
379	-1e-05	0	-1e-05	2e-05	0	-3e-05	0	-0.00011	0
380	-1e-05	0	-1e-05	2e-05	0	-3e-05	0	-0.00011	0
381	-1e-05	0	-1e-05	2e-05	0	-3e-05	0	-0.00011	0
382	-1e-05	0	-1e-05	2e-05	0	-3e-05	0	-0.00011	0
383	-1e-05	0	-1e-05	2e-05	0	-3e-05	0	-0.00011	0
384	-1e-05	0	-1e-05	2e-05	0	-3e-05	0	-0.00011	0
385	-1e-05	0	-1e-05	2e-05	0	-3e-05	0	-0.00011	0
386	-1e-05	0	-1e-05	2e-05	0	-3e-05	0	-0.00011	0
388	-1e-05	0	-1e-05	2e-05	0	-3e-05	0	-0.00011	0
389	-1e-05	0	-1e-05	2e-05	0	-3e-05	0	-0.00011	0
390	-1e-05	0	-1e-05	2e-05	0	-3e-05	0	-0.00011	0
391	-1e-05	0	-1e-05	2e-05	0	-3e-05	0	-0.00011	0
392	-1e-05	0	-1e-05	2e-05	0	-3e-05	0	-0.00011	0
393	-1e-05	0	-1e-05	2e-05	0	-3e-05	0	-0.00011	0
394	-1e-05	0	-1e-05	2e-05	0	-3e-05	0	-0.00011	0
395	-1e-05	0	-1e-05	2e-05	0	-3e-05	0	-0.00011	0
396	-1e-05	0	-1e-05	2e-05	0	-3e-05	0	-0.00011	0
397	-1e-05	0	-1e-05	2e-05	0	-3e-05	0	-0.00011	0
398	-1e-05	-2e-05	1e-05	-1e-05	-1e-05	1e-05	-9e-05	-1e-05	0
399	-1e-05	-2e-05	1e-05	-1e-05	-1e-05	1e-05	-9e-05	-1e-05	0
400	-1e-05	-3e-05	-1e-05	-3e-05	-1e-05	0	0	-1e-05	0
401	-1e-05	-3e-05	-1e-05	-3e-05	-1e-05	0	0	-1e-05	0
402	-1e-05	-3e-05	-1e-05	-3e-05	-1e-05	0	0	-1e-05	0
403	-1e-05	-3e-05	-1e-05	-3e-05	-1e-05	0	0	-1e-05	0
404	-1e-05	-3e-05	-1e-05	-3e-05	-1e-05	0	0	-1e-05	0
405	-1e-05	-3e-05	-1e-05	-3e-05	-1e-05	0	0	-1e-05	0
406	-1e-05	-3e-05	-1e-05	-3e-05	-1e-05	0	0	-1e-05	0
407	-1e-05	-3e-05	-1e-05	-3e-05	-1e-05	0	0	-1e-05	0
408	-1e-05	-3e-05	-1e-05	-3e-05	-1e-05	0	0	-1e-05	0
409	-1e-05	-3e-05	-1e-05	-3e-05	-1e-05	0	0	-1e-05	0
410	-1e-05	-3e-05	-1e-05	-3e-05	-1e-05	0	0	-1e-05	0
411	-1e-05	-3e-05	-1e-05	-3e-05	-1e-05	0	0	-1e-05	0
412	1e-05	1e-05	3e-05	2e-05	1e-05	0	-2e-05	-7e-05	0
413	1e-05	1e-05	3e-05	2e-05	1e-05	0	-2e-05	-7e-05	0
414	1e-05	1e-05	3e-05	2e-05	1e-05	0	-2e-05	-7e-05	0
415	1e-05	1e-05	3e-05	2e-05	1e-05	0	-2e-05	-7e-05	0
416	1e-05	1e-05	3e-05	2e-05	1e-05	0	-2e-05	-7e-05	0
417	1e-05	1e-05	3e-05	2e-05	1e-05	0	-2e-05	-7e-05	0
418	1e-05	1e-05	3e-05	2e-05	1e-05	0	-2e-05	-7e-05	0
419	-1e-05	-1e-05	-2e-05	0	0	0	-6e-05	-1e-05	0
420	-1e-05	-1e-05	-2e-05	0	0	0	-6e-05	-1e-05	0
421	-1e-05	-1e-05	-2e-05	0	0	0	-6e-05	-1e-05	0
422	-1e-05	-1e-05	-2e-05	0	0	0	-6e-05	-1e-05	0
423	-1e-05	-1e-05	-2e-05	0	0	0	-6e-05	-1e-05	0
424	-1e-05	-1e-05	-2e-05	0	0	0	-6e-05	-1e-05	0
425	-1e-05	-1e-05	-2e-05	0	0	0	-6e-05	-1e-05	0
426	-1e-05	-1e-05	-2e-05	0	0	0	-6e-05	-1e-05	0
427	-1e-05	-1e-05	-2e-05	0	0	0	-6e-05	-1e-05	0
428	-1e-05	-1e-05	-2e-05	0	0	0	-6e-05	-1e-05	0
429	-1e-05	-1e-05	-2e-05	0	0	0	-6e-05	-1e-05	0
430	-1e-05	-1e-05	-2e-05	0	0	0	-6e-05	-1e-05	0
431	-1e-05	-1e-05	-2e-05	0	0	0	-6e-05	-1e-05	0
432	-1e-05	-1e-05	-2e-05	0	0	0	-6e-05	-1e-05	0
433	-1e-05	-1e-05	-2e-05	0	0	0	-6e-05	-1e-05	0
434	-1e-05	-1e-05	-2e-05	0	0	0	-6e-05	-1e-05	0
435	-4e-05	-2e-05	-1e-05	0	-1e-05	-1e-05	-4e-05	-4e-05	0
436	-4e-05	-2e-05	-1e-05	0	-1e-05	-1e-05	-4e-05	-4e-05	0
438	-1e-05	-3e-05	-2e-05	-3e-05	-1e-05	-1e-05	7e-05	5e-05	0
439	-1e-05	-3e-05	-2e-05	-3e-05	-1e-05	-1e-05	7e-05	5e-05	0
440	-1e-05	-3e-05	-2e-05	-3e-05	-1e-05	-1e-05	7e-05	5e-05	0
441	-1e-05	-3e-05	-2e-05	-3e-05	-1e-05	-1e-05	7e-05	5e-05	0
442	-1e-05	-3e-05	-2e-05	-3e-05	-1e-05	-1e-05	7e-05	5e-05	0
443	-1e-05	-3e-05	-2e-05	-3e-05	-1e-05	-1e-05	7e-05	5e-05	0
444	-1e-05	-3e-05	-2e-05	-3e-05	-1e-05	-1e-05	7e-05	5e-05	0
445	-1e-05	-3e-05	-2e-05	-3e-05	-1e-05	-1e-05	7e-05	5e-05	0
446	-1e-05	-3e-05	-2e-05	-3e-05	-1e-05	-1e-05	7e-05	5e-05	0
447	-1e-05	-3e-05	-2e-05	-3e-05	-1e-05	-1e-05	7e-05	5e-05	0
448	-1e-05	-3e-05	-2e-05	-3e-05	-1e-05	-1e-05	7e-05	5e-05	0
449	-1e-05	-3e-05	-2e-05	-3e-05	-1e-05	-1e-05	7e-05	5e-05	0
450	-1e-05	-3e-05	-2e-05	-3e-05	-1e-05	-1e-05	7e-05	5e-05	0
451	-1e-05	-3e-05	-2e-05	-3e-05	-1e-05	-1e-05	7e-05	5e-05	0
452	-1e-05	-3e-05	-2e-05	-3e-05	-1e-05	-1e-05	7e-05	5e-05	0
453	-1e-05	-3e-05	-2e-05	-3e-05	-1e-05	-1e-05	7e-05	5e-05	0
454	-1e-05	-3e-05	-2e-05	-3e-05	-1e-05	-1e-05	7e-05	5e-05	0
455	-1e-05	-3e-05	-2e-05	-3e-05	-1e-05	-1e-05	7e-05	5e-05	0
456	-1e-05	-3e-05	-2e-05	-3e-05	-1e-05	-1e-05	7e-05	5e-05	0
457	-1e-05	-3e-05	-2e-05	-3e-05	-1e-05	-1e-05	7e-05	5e-05	0
458	2e-05	-3e-05	1e-05	0	-2e-05	-2e-05	-0.0001	2e-05	0
459	-2e-05	0	-1e-05	-2e-05	-2e-05	-4e-05	1e-05	2e-05	0
460	-2e-05	0	0	1e-05	0	-4e-05	-8e-05	-0.00024	0
461	-2e-05	0	0	1e-05	0	-4e-05	-8e-05	-0.00024	0
462	-2e-05	0	0	1e-05	0	-4e-05	-8e-05	-0.00024	0
463	-2e-05	0	0	1e-05	0	-4e-05	-8e-05	-0.00024	0
464	-2e-05	0	0	1e-05	0	-4e-05	-8e-05	-0.00024	0
465	-2e-05	0	0	1e-05	0	-4e-05	-8e-05	-0.00024	0
466	-2e-05	0	0	1e-05	0	-4e-05	-8e-05	-0.00024	0
467	-2e-05	0	0	1e-05	0	-4e-05	-8e-05	-0.00024	0
468	-2e-05	0	0	1e-05	0	-4e-05	-8e-05	-0.00024	0
469	-2e-05	0	0	1e-05	0	-4e-05	-8e-05	-0.00024	0
470	-2e-05	0	0	1e-05	0	-4e-05	-8e-05	-0.00024	0
471	-2e-05	0	0	1e-05	0	-4e-05	-8e-05	-0.00024	0
472	-2e-05	0	0	-1e-05	1e-05	-1e-05	-2e-05	-5e-05	0
473	-2e-05	0	0	-1e-05	1e-05	-1e-05	-2e-05	-5e-05	0
474	-2e-05	0	0	-1e-05	1e-05	-1e-05	-2e-05	-5e-05	0
475	-2e-05	0	0	-1e-05	1e-05	-1e-05	-2e-05	-5e-05	0
476	-2e-05	0	0	-1e-05	1e-05	-1e-05	-2e-05	-5e-05	0
477	-2e-05	0	0	-1e-05	1e-05	-1e-05	-2e-05	-5e-05	0
478	-2e-05	0	0	-1e-05	1e-05	-1e-05	-2e-05	-5e-05	0
479	-2e-05	0	0	-1e-05	1e-05	-1e-05	-2e-05	-5e-05	0
480	-2e-05	0	0	-1e-05	1e-05	-1e-05	-2e-05	-5e-05	0
481	-1e-05	-1e-05	-1e-05	1e-05	-3e-05	2e-05	0	7e-05	0
482	-1e-05	-1e-05	-1e-05	1e-05	-3e-05	2e-05	0	7e-05	0
483	-1e-05	-1e-05	-1e-05	1e-05	-3e-05	2e-05	0	7e-05	0
484	-1e-05	-1e-05	-1e-05	1e-05	-3e-05	2e-05	0	7e-05	0
485	-1e-05	-1e-05	-1e-05	1e-05	-3e-05	2e-05	0	7e-05	0
486	-1e-05	-1e-05	-1e-05	1e-05	-3e-05	2e-05	0	7e-05	0
487	-1e-05	-1e-05	-1e-05	1e-05	-3e-05	2e-05	0	7e-05	0
488	-1e-05	-1e-05	-1e-05	1e-05	-3e-05	2e-05	0	7e-05	0
489	-1e-05	-1e-05	-1e-05	1e-05	-3e-05	2e-05	0	7e-05	0
490	-1e-05	-1e-05	-1e-05	1e-05	-3e-05	2e-05	0	7e-05	0
491	-1e-05	-1e-05	-1e-05	1e-05	-3e-05	2e-05	0	7e-05	0
492	-1e-05	-1e-05	-1e-05	1e-05	-3e-05	2e-05	0	7e-05	0
493	-1e-05	-1e-05	-1e-05	1e-05	-3e-05	2e-05	0	7e-05	0
494	-1e-05	-1e-05	-1e-05	1e-05	-3e-05	2e-05	0	7e-05	0
495	-1e-05	-1e-05	-1e-05	1e-05	-3e-05	2e-05	0	7e-05	0
496	0	0	-1e-05	1e-05	0	-2e-05	2e-05	-8e-05	0
497	1e-05	4e-05	2e-05	2e-05	2e-05	0	-5e-05	-0.00013	0
498	1e-05	4e-05	2e-05	2e-05	2e-05	0	-5e-05	-0.00013	0
499	1e-05	4e-05	2e-05	2e-05	2e-05	0	-5e-05	-0.00013	0
500	1e-05	4e-05	2e-05	2e-05	2e-05	0	-5e-05	-0.00013	0
501	1e-05	4e-05	2e-05	2e-05	2e-05	0	-5e-05	-0.00013	0
502	1e-05	4e-05	2e-05	2e-05	2e-05	0	-5e-05	-0.00013	0
503	1e-05	4e-05	2e-05	2e-05	2e-05	0	-5e-05	-0.00013	0
504	1e-05	4e-05	2e-05	2e-05	2e-05	0	-5e-05	-0.00013	0
505	1e-05	4e-05	2e-05	2e-05	2e-05	0	-5e-05	-0.00013	0
506	1e-05	4e-05	2e-05	2e-05	2e-05	0	-5e-05	-0.00013	0
507	1e-05	4e-05	2e-05	2e-05	2e-05	0	-5e-05	-0.00013	0
508	1e-05	4e-05	2e-05	2e-05	2e-05	0	-5e-05	-0.00013	0
509	1e-05	4e-05	2e-05	2e-05	2e-05	0	-5e-05	-0.00013	0
510	1e-05	4e-05	2e-05	2e-05	2e-05	0	-5e-05	-0.00013	0
511	1e-05	4e-05	2e-05	2e-05	2e-05	0	-5e-05	-0.00013	0
512	1e-05	4e-05	2e-05	2e-05	2e-05	0	-5e-05	-0.00013	0
513	1e-05	4e-05	2e-05	2e-05	2e-05	0	-5e-05	-0.00013	0
514	1e-05	4e-05	2e-05	2e-05	2e-05	0	-5e-05	-0.00013	0
515	1e-05	4e-05	2e-05	2e-05	2e-05	0	-5e-05	-0.00013	0
516	1e-05	4e-05	2e-05	2e-05	2e-05	0	-5e-05	-0.00013	0
517	1e-05	4e-05	2e-05	2e-05	2e-05	0	-5e-05	-0.00013	0
518	0	-1e-05	-4e-05	-1e-05	-1e-05	-1e-05	0	3e-05	0
519	0	-1e-05	-4e-05	-1e-05	-1e-05	-1e-05	0	3e-05	0
520	-1e-05	1e-05	-1e-05	1e-05	0	-1e-05	-3e-05	-5e-05	0
521	-1e-05	1e-05	-1e-05	1e-05	0	-1e-05	-3e-05	-5e-05	0
522	-1e-05	1e-05	-1e-05	1e-05	0	-1e-05	-3e-05	-5e-05	0
523	-1e-05	1e-05	-1e-05	1e-05	0	-1e-05	-3e-05	-5e-05	0
524	-1e-05	1e-05	-1e-05	1e-05	0	-1e-05	-3e-05	-5e-05	0
525	-1e-05	1e-05	-1e-05	1e-05	0	-1e-05	-3e-05	-5e-05	0
526	-1e-05	1e-05	-1e-05	1e-05	0	-1e-05	-3e-05	-5e-05	0
527	-1e-05	1e-05	-1e-05	1e-05	0	-1e-05	-3e-05	-5e-05	0
528	-1e-05	1e-05	-1e-05	1e-05	0	-1e-05	-3e-05	-5e-05	0
529	-1e-05	1e-05	-1e-05	1e-05	0	-1e-05	-3e-05	-5e-05	0
530	-1e-05	1e-05	-1e-05	1e-05	0	-1e-05	-3e-05	-5e-05	0
531	-1e-05	1e-05	-1e-05	1e-05	0	-1e-05	-3e-05	-5e-05	0
532	-1e-05	1e-05	-1e-05	1e-05	0	-1e-05	-3e-05	-5e-05	0
534	0	-2e-05	-5e-05	-2e-05	-2e-05	-1e-05	1e-05	-1e-05	0
535	0	-2e-05	-5e-05	-2e-05	-2e-05	-1e-05	1e-05	-1e-05	0
536	0	-2e-05	-5e-05	-2e-05	-2e-05	-1e-05	1e-05	-1e-05	0
537	0	-2e-05	-5e-05	-2e-05	-2e-05	-1e-05	1e-05	-1e-05	0
538	0	-2e-05	-5e-05	-2e-05	-2e-05	-1e-05	1e-05	-1e-05	0
539	0	-2e-05	-5e-05	-2e-05	-2e-05	-1e-05	1e-05	-1e-05	0
540	0	-2e-05	-5e-05	-2e-05	-2e-05	-1e-05	1e-05	-1e-05	0
541	0	1e-05	-2e-05	-3e-05	-3e-05	-3e-05	-2e-05	2e-05	0
542	0	1e-05	-2e-05	-3e-05	-3e-05	-3e-05	-2e-05	2e-05	0
543	0	1e-05	-2e-05	-3e-05	-3e-05	-3e-05	-2e-05	2e-05	0
544	0	1e-05	-2e-05	-3e-05	-3e-05	-3e-05	-2e-05	2e-05	0
545	0	1e-05	-2e-05	-3e-05	-3e-05	-3e-05	-2e-05	2e-05	0
546	0	1e-05	-2e-05	-3e-05	-3e-05	-3e-05	-2e-05	2e-05	0
547	0	1e-05	-2e-05	-3e-05	-3e-05	-3e-05	-2e-05	2e-05	0
548	0	1e-05	-2e-05	-3e-05	-3e-05	-3e-05	-2e-05	2e-05	0
549	0	1e-05	-2e-05	-3e-05	-3e-05	-3e-05	-2e-05	2e-05	0
550	0	1e-05	-2e-05	-3e-05	-3e-05	-3e-05	-2e-05	2e-05	0
551	0	1e-05	-2e-05	-3e-05	-3e-05	-3e-05	-2e-05	2e-05	0
552	0	1e-05	-2e-05	-3e-05	-3e-05	-3e-05	-2e-05	2e-05	0
553	0	1e-05	-2e-05	-3e-05	-3e-05	-3e-05	-2e-05	2e-05	0
554	0	1e-05	-2e-05	-3e-05	-3e-05	-3e-05	-2e-05	2e-05	0
555	0	1e-05	-2e-05	-3e-05	-3e-05	-3e-05	-2e-05	2e-05	0
556	0	-5e-05	0	-1e-05	-2e-05	-1e-05	-1e-05	0	0
557	-3e-05	-2e-05	-2e-05	-2e-05	1e-05	-2e-05	1e-05	1e-05	0
558	-3e-05	-2e-05	-2e-05	-2e-05	1e-05	-2e-05	1e-05	1e-05	0
559	-3e-05	-2e-05	-2e-05	-2e-05	1e-05	-2e-05	1e-05	1e-05	0
560	-3e-05	-2e-05	-2e-05	-2e-05	1e-05	-2e-05	1e-05	1e-05	0
561	-3e-05	-2e-05	-2e-05	-2e-05	1e-05	-2e-05	1e-05	1e-05	0
562	-3e-05	-2e-05	-2e-05	-2e-05	1e-05	-2e-05	1e-05	1e-05	0
563	-3e-05	-2e-05	-2e-05	-2e-05	1e-05	-2e-05	1e-05	1e-05	0
564	-3e-05	-2e-05	-2e-05	-2e-05	1e-05	-2e-05	1e-05	1e-05	0
565	-3e-05	-2e-05	-2e-05	-2e-05	1e-05	-2e-05	1e-05	1e-05	0
566	-3e-05	-2e-05	-2e-05	-2e-05	1e-05	-2e-05	1e-05	1e-05	0
567	-3e-05	-2e-05	-2e-05	-2e-05	1e-05	-2e-05	1e-05	1e-05	0
568	-3e-05	-2e-05	-2e-05	-2e-05	1e-05	-2e-05	1e-05	1e-05	0
569	-3e-05	-2e-05	-2e-05	-2e-05	1e-05	-2e-05	1e-05	1e-05	0
570	-3e-05	-2e-05	-2e-05	-2e-05	1e-05	-2e-05	1e-05	1e-05	0
571	-3e-05	-2e-05	-2e-05	-2e-05	1e-05	-2e-05	1e-05	1e-05	0
572	-3e-05	-2e-05	-2e-05	-2e-05	1e-05	-2e-05	1e-05	1e-05	0
573	-3e-05	-2e-05	-2e-05	-2e-05	1e-05	-2e-05	1e-05	1e-05	0
574	-3e-05	-2e-05	-2e-05	-2e-05	1e-05	-2e-05	1e-05	1e-05	0
575	-3e-05	-2e-05	-2e-05	-2e-05	1e-05	-2e-05	1e-05	1e-05	0
576	-3e-05	-2e-05	-2e-05	-2e-05	1e-05	-2e-05	1e-05	1e-05	0
577	-3e-05	-2e-05	-2e-05	-2e-05	1e-05	-2e-05	1e-05	1e-05	0
578	0	-1e-05	0	-3e-05	-2e-05	0	-1e-05	-2e-05	0
579	0	-1e-05	0	-3e-05	-2e-05	0	-1e-05	-2e-05	0
580	-1e-05	-4e-05	-3e-05	-3e-05	-1e-05	-1e-05	1e-05	2e-05	0
581	-1e-05	-4e-05	-3e-05	-3e-05	-1e-05	-1e-05	1e-05	2e-05	0
582	-1e-05	-4e-05	-3e-05	-3e-05	-1e-05	-1e-05	1e-05	2e-05	0
583	-1e-05	-4e-05	-3e-05	-3e-05	-1e-05	-1e-05	1e-05	2e-05	0
584	-1e-05	-4e-05	-3e-05	-3e-05	-1e-05	-1e-05	1e-05	2e-05	0
585	-1e-05	-4e-05	-3e-05	-3e-05	-1e-05	-1e-05	1e-05	2e-05	0
586	-1e-05	-4e-05	-3e-05	-3e-05	-1e-05	-1e-05	1e-05	2e-05	0
588	-1e-05	-4e-05	-3e-05	-3e-05	-1e-05	-1e-05	1e-05	2e-05	0
589	-1e-05	-4e-05	-3e-05	-3e-05	-1e-05	-1e-05	1e-05	2e-05	0
590	-1e-05	-4e-05	-3e-05	-3e-05	-1e-05	-1e-05	1e-05	2e-05	0
591	-1e-05	-4e-05	-3e-05	-3e-05	-1e-05	-1e-05	1e-05	2e-05	0
592	1e-05	0	0	2e-05	2e-05	-1e-05	-1e-05	-9e-05	0
593	1e-05	0	0	2e-05	2e-05	-1e-05	-1e-05	-9e-05	0
594	1e-05	0	0	2e-05	2e-05	-1e-05	-1e-05	-9e-05	0
595	1e-05	0	0	2e-05	2e-05	-1e-05	-1e-05	-9e-05	0
596	1e-05	0	0	2e-05	2e-05	-1e-05	-1e-05	-9e-05	0
597	1e-05	0	0	2e-05	2e-05	-1e-05	-1e-05	-9e-05	0
598	1e-05	0	0	2e-05	2e-05	-1e-05	-1e-05	-9e-05	0
599	1e-05	0	0	2e-05	2e-05	-1e-05	-1e-05	-9e-05	0
600	1e-05	0	0	2e-05	2e-05	-1e-05	-1e-05	-9e-05	0
601	-2e-05	-1e-05	2e-05	-2e-05	0	0	-1e-05	4e-05	0
602	-2e-05	-1e-05	2e-05	-2e-05	0	0	-1e-05	4e-05	0
603	-2e-05	-1e-05	2e-05	-2e-05	0	0	-1e-05	4e-05	0
604	-2e-05	-1e-05	2e-05	-2e-05	0	0	-1e-05	4e-05	0
605	-2e-05	-1e-05	2e-05	-2e-05	0	0	-1e-05	4e-05	0
606	-2e-05	-1e-05	2e-05	-2e-05	0	0	-1e-05	4e-05	0
607	-2e-05	-1e-05	2e-05	-2e-05	0	0	-1e-05	4e-05	0
608	-2e-05	-1e-05	2e-05	-2e-05	0	0	-1e-05	4e-05	0
609	-2e-05	-1e-05	2e-05	-2e-05	0	0	-1e-05	4e-05	0
610	-2e-05	-1e-05	2e-05	-2e-05	0	0	-1e-05	4e-05	0
611	-2e-05	-1e-05	2e-05	-2e-05	0	0	-1e-05	4e-05	0
612	-2e-05	-1e-05	2e-05	-2e-05	0	0	-1e-05	4e-05	0
613	-2e-05	-1e-05	2e-05	-2e-05	0	0	-1e-05	4e-05	0
614	-2e-05	-1e-05	2e-05	-2e-05	0	0	-1e-05	4e-05	0
615	2e-05	0	-1e-05	-2e-05	-2e-05	1e-05	5e-05	0	0
616	-2e-05	0	0	-1e-05	-1e-05	-1e-05	0	-2e-05	0
617	-2e-05	-3e-05	-1e-05	-2e-05	-3e-05	0	8e-05	9e-05	0
618	-2e-05	-3e-05	-1e-05	-2e-05	-3e-05	0	8e-05	9e-05	0
619	-2e-05	-3e-05	-1e-05	-2e-05	-3e-05	0	8e-05	9e-05	0
620	-2e-05	-3e-05	-1e-05	-2e-05	-3e-05	0	8e-05	9e-05	0
621	-2e-05	-3e-05	-1e-05	-2e-05	-3e-05	0	8e-05	9e-05	0
622	-2e-05	-3e-05	-1e-05	-2e-05	-3e-05	0	8e-05	9e-05	0
623	-2e-05	-3e-05	-1e-05	-2e-05	-3e-05	0	8e-05	9e-05	0
624	-2e-05	-3e-05	-1e-05	-2e-05	-3e-05	0	8e-05	9e-05	0
625	-2e-05	-3e-05	-1e-05	-2e-05	-3e-05	0	8e-05	9e-05	0
626	-2e-05	-3e-05	-1e-05	-2e-05	-3e-05	0	8e-05	9e-05	0
627	-2e-05	-3e-05	-1e-05	-2e-05	-3e-05	0	8e-05	9e-05	0
628	-2e-05	-3e-05	-1e-05	-2e-05	-3e-05	0	8e-05	9e-05	0
629	-2e-05	-3e-05	-1e-05	-2e-05	-3e-05	0	8e-05	9e-05	0
630	-2e-05	-3e-05	-1e-05	-2e-05	-3e-05	0	8e-05	9e-05	0
631	-2e-05	-3e-05	-1e-05	-2e-05	-3e-05	0	8e-05	9e-05	0
632	-2e-05	-3e-05	-1e-05	-2e-05	-3e-05	0	8e-05	9e-05	0
633	-2e-05	-3e-05	-1e-05	-2e-05	-3e-05	0	8e-05	9e-05	0
634	-2e-05	-3e-05	-1e-05	-2e-05	-3e-05	0	8e-05	9e-05	0
635	-2e-05	-3e-05	-1e-05	-2e-05	-3e-05	0	8e-05	9e-05	0
636	-2e-05	-3e-05	-1e-05	-2e-05	-3e-05	0	8e-05	9e-05	0
637	-2e-05	-3e-05	-1e-05	-2e-05	-3e-05	0	8e-05	9e-05	0
638	-2e-05	-1e-05	0	-1e-05	-2e-05	-1e-05	0	-1e-05	0
639	-2e-05	-1e-05	0	-1e-05	-2e-05	-1e-05	0	-1e-05	0
640	2e-05	0	0	-1e-05	0	-1e-05	-3e-05	-2e-05	0
641	2e-05	0	0	-1e-05	0	-1e-05	-3e-05	-2e-05	0
642	2e-05	0	0	-1e-05	0	-1e-05	-3e-05	-2e-05	0
643	2e-05	0	0	-1e-05	0	-1e-05	-3e-05	-2e-05	0
644	2e-05	0	0	-1e-05	0	-1e-05	-3e-05	-2e-05	0
645	2e-05	0	0	-1e-05	0	-1e-05	-3e-05	-2e-05	0
646	2e-05	0	0	-1e-05	0	-1e-05	-3e-05	-2e-05	0
647	2e-05	0	0	-1e-05	0	-1e-05	-3e-05	-2e-05	0
648	2e-05	0	0	-1e-05	0	-1e-05	-3e-05	-2e-05	0
649	2e-05	0	0	-1e-05	0	-1e-05	-3e-05	-2e-05	0
650	2e-05	0	0	-1e-05	0	-1e-05	-3e-05	-2e-05	0
651	2e-05	0	0	-1e-05	0	-1e-05	-3e-05	-2e-05	0
652	-2e-05	-2e-05	-3e-05	-2e-05	-1e-05	-1e-05	0	4e-05	0
653	-2e-05	-2e-05	-3e-05	-2e-05	-1e-05	-1e-05	0	4e-05	0
654	-2e-05	-2e-05	-3e-05	-2e-05	-1e-05	-1e-05	0	4e-05	0
655	-2e-05	-2e-05	-3e-05	-2e-05	-1e-05	-1e-05	0	4e-05	0
656	-2e-05	-2e-05	-3e-05	-2e-05	-1e-05	-1e-05	0	4e-05	0
657	-2e-05	-2e-05	-3e-05	-2e-05	-1e-05	-1e-05	0	4e-05	0
658	-2e-05	-2e-05	-3e-05	-2e-05	-1e-05	-1e-05	0	4e-05	0
659	-2e-05	-2e-05	-3e-05	-2e-05	-1e-05	-1e-05	0	4e-05	0
660	-2e-05	-2e-05	-3e-05	-2e-05	-1e-05	-1e-05	0	4e-05	0
661	2e-05	-1e-05	-1e-05	-1e-05	-4e-05	-2e-05	-1e-05	2e-05	0
662	2e-05	-1e-05	-1e-05	-1e-05	-4e-05	-2e-05	-1e-05	2e-05	0
663	2e-05	-1e-05	-1e-05	-1e-05	-4e-05	-2e-05	-1e-05	2e-05	0
664	2e-05	-1e-05	-1e-05	-1e-05	-4e-05	-2e-05	-1e-05	2e-05	0
665	2e-05	-1e-05	-1e-05	-1e-05	-4e-05	-2e-05	-1e-05	2e-05	0
666	2e-05	-1e-05	-1e-05	-1e-05	-4e-05	-2e-05	-1e-05	2e-05	0
667	2e-05	-1e-05	-1e-05	-1e-05	-4e-05	-2e-05	-1e-05	2e-05	0
668	2e-05	-1e-05	-1e-05	-1e-05	-4e-05	-2e-05	-1e-05	2e-05	0
669	2e-05	-1e-05	-1e-05	-1e-05	-4e-05	-2e-05	-1e-05	2e-05	0
670	2e-05	-1e-05	-1e-05	-1e-05	-4e-05	-2e-05	-1e-05	2e-05	0
671	2e-05	-1e-05	-1e-05	-1e-05	-4e-05	-2e-05	-1e-05	2e-05	0
672	2e-05	-1e-05	-1e-05	-1e-05	-4e-05	-2e-05	-1e-05	2e-05	0
673	2e-05	-1e-05	-1e-05	-1e-05	-4e-05	-2e-05	-1e-05	2e-05	0
674	2e-05	-1e-05	-1e-05	-1e-05	-4e-05	-2e-05	-1e-05	2e-05	0
675	-3e-05	-2e-05	1e-05	0	-1e-05	-2e-05	1e-05	0	0
676	-3e-05	-2e-05	1e-05	0	-1e-05	-2e-05	1e-05	0	0
677	-1e-05	3e-05	0	2e-05	0	1e-05	-4e-05	0	0
678	-1e-05	3e-05	0	2e-05	0	1e-05	-4e-05	0	0
679	-1e-05	3e-05	0	2e-05	0	1e-05	-4e-05	0	0
680	-1e-05	3e-05	0	2e-05	0	1e-05	-4e-05	0	0
681	-1e-05	3e-05	0	2e-05	0	1e-05	-4e-05	0	0
682	-1e-05	3e-05	0	2e-05	0	1e-05	-4e-05	0	0
683	-1e-05	3e-05	0	2e-05	0	1e-05	-4e-05	0	0
684	-1e-05	3e-05	0	2e-05	0	1e-05	-4e-05	0	0
685	-1e-05	3e-05	0	2e-05	0	1e-05	-4e-05	0	0
686	-1e-05	3e-05	0	2e-05	0	1e-05	-4e-05	0	0
687	-1e-05	3e-05	0	2e-05	0	1e-05	-4e-05	0	0
688	-1e-05	3e-05	0	2e-05	0	1e-05	-4e-05	0	0
689	-1e-05	3e-05	0	2e-05	0	1e-05	-4e-05	0	0
690	-1e-05	3e-05	0	2e-05	0	1e-05	-4e-05	0	0
691	-1e-05	3e-05	0	2e-05	0	1e-05	-4e-05	0	0
692	-1e-05	3e-05	0	2e-05	0	1e-05	-4e-05	0	0
693	-1e-05	3e-05	0	2e-05	0	1e-05	-4e-05	0	0
694	-1e-05	3e-05	0	2e-05	0	1e-05	-4e-05	0	0
695	-1e-05	3e-05	0	2e-05	0	1e-05	-4e-05	0	0
696	-1e-05	3e-05	0	2e-05	0	1e-05	-4e-05	0	0
697	-1e-05	3e-05	0	2e-05	0	1e-05	-4e-05	0	0
698	2e-05	0	-1e-05	-4e-05	-1e-05	0	-4e-05	2e-05	0
699	0	-1e-05	-4e-05	0	-1e-05	-1e-05	2e-05	2e-05	0
700	-1e-05	-1e-05	-1e-05	-2e-05	-1e-05	-3e-05	0	6e-05	0
701	-1e-05	-1e-05	-1e-05	-2e-05	-1e-05	-3e-05	0	6e-05	0
702	-1e-05	-1e-05	-1e-05	-2e-05	-1e-05	-3e-05	0	6e-05	0
703	-1e-05	-1e-05	-1e-05	-2e-05	-1e-05	-3e-05	0	6e-05	0
704	-1e-05	-1e-05	-1e-05	-2e-05	-1e-05	-3e-05	0	6e-05	0
705	-1e-05	-1e-05	-1e-05	-2e-05	-1e-05	-3e-05	0	6e-05	0
706	-1e-05	-1e-05	-1e-05	-2e-05	-1e-05	-3e-05	0	6e-05	0
707	-1e-05	-1e-05	-1e-05	-2e-05	-1e-05	-3e-05	0	6e-05	0
708	-1e-05	-1e-05	-1e-05	-2e-05	-1e-05	-3e-05	0	6e-05	0
709	-1e-05	-1e-05	-1e-05	-2e-05	-1e-05	-3e-05	0	6e-05	0
710	-1e-05	-1e-05	-1e-05	-2e-05	-1e-05	-3e-05	0	6e-05	0
711	-1e-05	-1e-05	-1e-05	-2e-05	-1e-05	-3e-05	0	6e-05	0
712	0	-1e-05	-1e-05	0	1e-05	-3e-05	1e-05	2e-05	0
713	0	-1e-05	-1e-05	0	1e-05	-3e-05	1e-05	2e-05	0
714	0	-1e-05	-1e-05	0	1e-05	-3e-05	1e-05	2e-05	0
715	0	-1e-05	-1e-05	0	1e-05	-3e-05	1e-05	2e-05	0
716	0	-1e-05	-1e-05	0	1e-05	-3e-05	1e-05	2e-05	0
717	0	-1e-05	-1e-05	0	1e-05	-3e-05	1e-05	2e-05	0
718	0	-1e-05	-1e-05	0	1e-05	-3e-05	1e-05	2e-05	0
719	0	-1e-05	-1e-05	0	1e-05	-3e-05	1e-05	2e-05	0
720	0	-1e-05	-1e-05	0	1e-05	-3e-05	1e-05	2e-05	0
721	-3e-05	-1e-05	-3e-05	-1e-05	0	1e-05	-7e-05	-9e-05	0
722	-3e-05	-1e-05	-3e-05	-1e-05	0	1e-05	-7e-05	-9e-05	0
723	-3e-05	-1e-05	-3e-05	-1e-05	0	1e-05	-7e-05	-9e-05	0
724	-3e-05	-1e-05	-3e-05	-1e-05	0	1e-05	-7e-05	-9e-05	0
725	-3e-05	-1e-05	-3e-05	-1e-05	0	1e-05	-7e-05	-9e-05	0
726	-3e-05	-1e-05	-3e-05	-1e-05	0	1e-05	-7e-05	-9e-05	0
727	-3e-05	-1e-05	-3e-05	-1e-05	0	1e-05	-7e-05	-9e-05	0
728	-3e-05	-1e-05	-3e-05	-1e-05	0	1e-05	-7e-05	-9e-05	0
729	-3e-05	-1e-05	-3e-05	-1e-05	0	1e-05	-7e-05	-9e-05	0
730	-3e-05	-1e-05	-3e-05	-1e-05	0	1e-05	-7e-05	-9e-05	0
731	-3e-05	-1e-05	-3e-05	-1e-05	0	1e-05	-7e-05	-9e-05	0
732	-3e-05	-1e-05	-3e-05	-1e-05	0	1e-05	-7e-05	-9e-05	0
733	-3e-05	-1e-05	-3e-05	-1e-05	0	1e-05	-7e-05	-9e-05	0
734	-3e-05	-1e-05	-3e-05	-1e-05	0	1e-05	-7e-05	-9e-05	0
735	-4e-05	0	-2e-05	-2e-05	-3e-05	-2e-05	-4e-05	-8e-05	0
736	-4e-05	0	-2e-05	-2e-05	-3e-05	-2e-05	-4e-05	-8e-05	0
738	-1e-05	1e-05	-3e-05	-1e-05	-1e-05	-2e-05	-7e-05	-0.0001	0
739	-1e-05	1e-05	-3e-05	-1e-05	-1e-05	-2e-05	-7e-05	-0.0001	0
740	-1e-05	1e-05	-3e-05	-1e-05	-1e-05	-2e-05	-7e-05	-0.0001	0
741	-1e-05	1e-05	-3e-05	-1e-05	-1e-05	-2e-05	-7e-05	-0.0001	0
742	-1e-05	1e-05	-3e-05	-1e-05	-1e-05	-2e-05	-7e-05	-0.0001	0
743	-1e-05	1e-05	-3e-05	-1e-05	-1e-05	-2e-05	-7e-05	-0.0001	0
744	-1e-05	1e-05	-3e-05	-1e-05	-1e-05	-2e-05	-7e-05	-0.0001	0
745	-1e-05	1e-05	-3e-05	-1e-05	-1e-05	-2e-05	-7e-05	-0.0001	0
746	-1e-05	1e-05	-3e-05	-1e-05	-1e-05	-2e-05	-7e-05	-0.0001	0
747	-1e-05	1e-05	-3e-05	-1e-05	-1e-05	-2e-05	-7e-05	-0.0001	0
748	-1e-05	1e-05	-3e-05	-1e-05	-1e-05	-2e-05	-7e-05	-0.0001	0
749	-1e-05	1e-05	-3e-05	-1e-05	-1e-05	-2e-05	-7e-05	-0.0001	0
750	-1e-05	1e-05	-3e-05	-1e-05	-1e-05	-2e-05	-7e-05	-0.0001	0
751	-1e-05	1e-05	-3e-05	-1e-05	-1e-05	-2e-05	-7e-05	-0.0001	0
752	-1e-05	1e-05	-3e-05	-1e-05	-1e-05	-2e-05	-7e-05	-0.0001	0
753	-1e-05	1e-05	-3e-05	-1e-05	-1e-05	-2e-05	-7e-05	-0.0001	0
754	-1e-05	1e-05	-3e-05	-1e-05	-1e-05	-2e-05	-7e-05	-0.0001	0
755	-1e-05	1e-05	-3e-05	-1e-05	-1e-05	-2e-05	-7e-05	-0.0001	0
756	-1e-05	1e-05	-3e-05	-1e-05	-1e-05	-2e-05	-7e-05	-0.0001	0
757	-1e-05	1e-05	-3e-05	-1e-05	-1e-05	-2e-05	-7e-05	-0.0001	0
758	0	3e-05	-2e-05	-2e-05	-1e-05	-2e-05	0	0	0
759	0	3e-05	-2e-05	-2e-05	-1e-05	-2e-05	0	0	0
760	-2e-05	-1e-05	0	-1e-05	1e-05	0	1e-05	0	0
761	-2e-05	-1e-05	0	-1e-05	1e-05	0	1e-05	0	0
762	-2e-05	-1e-05	0	-1e-05	1e-05	0	1e-05	0	0
763	-2e-05	-1e-05	0	-1e-05	1e-05	0	1e-05	0	0
764	-2e-05	-1e-05	0	-1e-05	1e-05	0	1e-05	0	0
765	-2e-05	-1e-05	0	-1e-05	1e-05	0	1e-05	0	0
766	-2e-05	-1e-05	0	-1e-05	1e-05	0	1e-05	0	0
767	-2e-05	-1e-05	0	-1e-05	1e-05	0	1e-05	0	0
768	-2e-05	-1e-05	0	-1e-05	1e-05	0	1e-05	0	0
769	-2e-05	-1e-05	0	-1e-05	1e-05	0	1e-05	0	0
770	-2e-05	-1e-05	0	-1e-05	1e-05	0	1e-05	0	0
771	-2e-05	-1e-05	0	-1e-05	1e-05	0	1e-05	0	0
772	2e-05	-2e-05	0	0	1e-05	1e-05	1e-05	-4e-05	0
773	2e-05	-2e-05	0	0	1e-05	1e-05	1e-05	-4e-05	0
774	2e-05	-2e-05	0	0	1e-05	1e-05	1e-05	-4e-05	0
775	2e-05	-2e-05	0	0	1e-05	1e-05	1e-05	-4e-05	0
776	2e-05	-2e-05	0	0	1e-05	1e-05	1e-05	-4e-05	0
777	2e-05	-2e-05	0	0	1e-05	1e-05	1e-05	-4e-05	0
778	2e-05	-2e-05	0	0	1e-05	1e-05	1e-05	-4e-05	0
779	2e-05	-2e-05	0	0	1e-05	1e-05	1e-05	-4e-05	0
780	2e-05	-2e-05	0	0	1e-05	1e-05	1e-05	-4e-05	0
781	-3e-05	-3e-05	-1e-05	-5e-05	-3e-05	-3e-05	2e-05	4e-05	0
782	-3e-05	-3e-05	-1e-05	-5e-05	-3e-05	-3e-05	2e-05	4e-05	0
783	-3e-05	-3e-05	-1e-05	-5e-05	-3e-05	-3e-05	2e-05	4e-05	0
784	-3e-05	-3e-05	-1e-05	-5e-05	-3e-05	-3e-05	2e-05	4e-05	0
785	-3e-05	-3e-05	-1e-05	-5e-05	-3e-05	-3e-05	2e-05	4e-05	0
786	-3e-05	-3e-05	-1e-05	-5e-05	-3e-05	-3e-05	2e-05	4e-05	0
787	-3e-05	-3e-05	-1e-05	-5e-05	-3e-05	-3e-05	2e-05	4e-05	0
788	-3e-05	-3e-05	-1e-05	-5e-05	-3e-05	-3e-05	2e-05	4e-05	0
789	-3e-05	-3e-05	-1e-05	-5e-05	-3e-05	-3e-05	2e-05	4e-05	0
790	-3e-05	-3e-05	-1e-05	-5e-05	-3e-05	-3e-05	2e-05	4e-05	0
791	-3e-05	-3e-05	-1e-05	-5e-05	-3e-05	-3e-05	2e-05	4e-05	0
792	-3e-05	-3e-05	-1e-05	-5e-05	-3e-05	-3e-05	2e-05	4e-05	0
793	-3e-05	-3e-05	-1e-05	-5e-05	-3e-05	-3e-05	2e-05	4e-05	0
794	-3e-05	-3e-05	-1e-05	-5e-05	-3e-05	-3e-05	2e-05	4e-05	0
795	-3e-05	-3e-05	-1e-05	-5e-05	-3e-05	-3e-05	2e-05	4e-05	0
796	-2e-05	-1e-05	2e-05	2e-05	-2e-05	0	0	-3e-05	0
797	-2e-05	-5e-05	0	-2e-05	0	0	-1e-05	1e-05	0
798	-2e-05	-5e-05	0	-2e-05	0	0	-1e-05	1e-05	0
799	-2e-05	-5e-05	0	-2e-05	0	0	-1e-05	1e-05	0
800	-2e-05	-5e-05	0	-2e-05	0	0	-1e-05	1e-05	0
801	-2e-05	-5e-05	0	-2e-05	0	0	-1e-05	1e-05	0
802	-2e-05	-5e-05	0	-2e-05	0	0	-1e-05	1e-05	0
803	-2e-05	-5e-05	0	-2e-05	0	0	-1e-05	1e-05	0
804	-2e-05	-5e-05	0	-2e-05	0	0	-1e-05	1e-05	0
806	-2e-05	-5e-05	0	-2e-05	0	0	-1e-05	1e-05	1
807	-2e-05	-5e-05	0	-2e-05	0	0	-1e-05	1e-05	1
808	-2e-05	-5e-05	0	-2e-05	0	0	-1e-05	1e-05	1
809	-2e-05	-5e-05	0	-2e-05	0	0	-1e-05	1e-05	1
810	-2e-05	-5e-05	0	-2e-05	0	0	-1e-05	1e-05	1
811	-2e-05	-5e-05	0	-2e-05	0	0	-1e-05	1e-05	1
812	-2e-05	-5e-05	0	-2e-05	0	0	-1e-05	1e-05	1
813	-2e-05	-5e-05	0	-2e-05	0	0	-1e-05	1e-05	1
814	-2e-05	-5e-05	0	-2e-05	0	0	-1e-05	1e-05	1
815	-2e-05	-5e-05	0	-2e-05	0	0	-1e-05	1e-05	1
816	-2e-05	-5e-05	0	-2e-05	0	0	-1e-05	1e-05	1
817	-2e-05	-5e-05	0	-2e-05	0	0	-1e-05	1e-05	1
818	-3e-05	1e-05	-2e-05	-1e-05	-3e-05	0	-3e-05	2e-05	1
819	-3e-05	1e-05	-2e-05	-1e-05	-3e-05	0	-3e-05	2e-05	1
820	0	-1e-05	-3e-05	2e-05	-2e-05	1e-05	2e-05	5e-05	1
821	0	-1e-05	-3e-05	2e-05	-2e-05	1e-05	2e-05	5e-05	1
822	0	-1e-05	-3e-05	2e-05	-2e-05	1e-05	2e-05	5e-05	1
823	0	-1e-05	-3e-05	2e-05	-2e-05	1e-05	2e-05	5e-05	1
824	0	-1e-05	-3e-05	2e-05	-2e-05	1e-05	2e-05	5e-05	1
825	0	-1e-05	-3e-05	2e-05	-2e-05	1e-05	2e-05	5e-05	1
826	0	-1e-05	-3e-05	2e-05	-2e-05	1e-05	2e-05	5e-05	1
827	0	-1e-05	-3e-05	2e-05	-2e-05	1e-05	2e-05	5e-05	1
828	0	-1e-05	-3e-05	2e-05	-2e-05	1e-05	2e-05	5e-05	1
829	0	-1e-05	-3e-05	2e-05	-2e-05	1e-05	2e-05	5e-05	1
830	0	-1e-05	-3e-05	2e-05	-2e-05	1e-05	2e-05	5e-05	1
831	0	-1e-05	-3e-05	2e-05	-2e-05	1e-05	2e-05	5e-05	1
832	0	0	1e-05	-2e-05	-2e-05	1e-05	-2e-05	2e-05	1
833	0	0	1e-05	-2e-05	-2e-05	1e-05	-2e-05	2e-05	1
834	0	0	1e-05	-2e-05	-2e-05	1e-05	-2e-05	2e-05	1
835	0	0	1e-05	-2e-05	-2e-05	1e-05	-2e-05	2e-05	1
836	0	0	1e-05	-2e-05	-2e-05	1e-05	-2e-05	2e-05	1
837	0	0	1e-05	-2e-05	-2e-05	1e-05	-2e-05	2e-05	1
838	0	0	1e-05	-2e-05	-2e-05	1e-05	-2e-05	2e-05	1
839	0	0	1e-05	-2e-05	-2e-05	1e-05	-2e-05	2e-05	1
840	0	0	1e-05	-2e-05	-2e-05	1e-05	-2e-05	2e-05	1
841	-4e-05	-5e-05	0	1e-05	-1e-05	-1e-05	2e-05	4e-05	1
842	-4e-05	-5e-05	0	1e-05	-1e-05	-1e-05	2e-05	4e-05	1
843	-4e-05	-5e-05	0	1e-05	-1e-05	-1e-05	2e-05	4e-05	1
844	-4e-05	-5e-05	0	1e-05	-1e-05	-1e-05	2e-05	4e-05	1
845	-4e-05	-5e-05	0	1e-05	-1e-05	-1e-05	2e-05	4e-05	1
846	-4e-05	-5e-05	0	1e-05	-1e-05	-1e-05	2e-05	4e-05	1
847	-4e-05	-5e-05	0	1e-05	-1e-05	-1e-05	2e-05	4e-05	1
848	-4e-05	-5e-05	0	1e-05	-1e-05	-1e-05	2e-05	4e-05	1
849	-4e-05	-5e-05	0	1e-05	-1e-05	-1e-05	2e-05	4e-05	1
850	-4e-05	-5e-05	0	1e-05	-1e-05	-1e-05	2e-05	4e-05	1
851	-4e-05	-5e-05	0	1e-05	-1e-05	-1e-05	2e-05	4e-05	1
852	-4e-05	-5e-05	0	1e-05	-1e-05	-1e-05	2e-05	4e-05	1
853	-4e-05	-5e-05	0	1e-05	-1e-05	-1e-05	2e-05	4e-05	1
854	-4e-05	-5e-05	0	1e-05	-1e-05	-1e-05	2e-05	4e-05	1
855	-4e-05	-5e-05	0	1e-05	-1e-05	-1e-05	2e-05	4e-05	1
856	-1e-05	-1e-05	-1e-05	1e-05	0	-1e-05	-8e-05	6e-05	1
857	1e-05	1e-05	0	2e-05	-1e-05	1e-05	-2e-05	-6e-05	1
858	1e-05	1e-05	0	2e-05	-1e-05	1e-05	-2e-05	-6e-05	1
859	1e-05	1e-05	0	2e-05	-1e-05	1e-05	-2e-05	-6e-05	1
860	1e-05	1e-05	0	2e-05	-1e-05	1e-05	-2e-05	-6e-05	1
861	1e-05	1e-05	0	2e-05	-1e-05	1e-05	-2e-05	-6e-05	1
862	1e-05	1e-05	0	2e-05	-1e-05	1e-05	-2e-05	-6e-05	1
863	1e-05	1e-05	0	2e-05	-1e-05	1e-05	-2e-05	-6e-05	1
864	1e-05	1e-05	0	2e-05	-1e-05	1e-05	-2e-05	-6e-05	1
865	1e-05	1e-05	0	2e-05	-1e-05	1e-05	-2e-05	-6e-05	1
866	1e-05	1e-05	0	2e-05	-1e-05	1e-05	-2e-05	-6e-05	1
867	1e-05	1e-05	0	2e-05	-1e-05	1e-05	-2e-05	-6e-05	1
868	1e-05	1e-05	0	2e-05	-1e-05	1e-05	-2e-05	-6e-05	1
869	1e-05	1e-05	0	2e-05	-1e-05	1e-05	-2e-05	-6e-05	1
870	1e-05	1e-05	0	2e-05	-1e-05	1e-05	-2e-05	-6e-05	1
871	1e-05	1e-05	0	2e-05	-1e-05	1e-05	-2e-05	-6e-05	1
872	1e-05	1e-05	0	2e-05	-1e-05	1e-05	-2e-05	-6e-05	1
873	1e-05	1e-05	0	2e-05	-1e-05	1e-05	-2e-05	-6e-05	1
874	1e-05	1e-05	0	2e-05	-1e-05	1e-05	-2e-05	-6e-05	1
875	1e-05	1e-05	0	2e-05	-1e-05	1e-05	-2e-05	-6e-05	1
876	1e-05	1e-05	0	2e-05	-1e-05	1e-05	-2e-05	-6e-05	1
877	1e-05	1e-05	0	2e-05	-1e-05	1e-05	-2e-05	-6e-05	1
878	-2e-05	-3e-05	-5e-05	-2e-05	1e-05	1e-05	-2e-05	1e-05	1
879	-2e-05	-3e-05	-5e-05	-2e-05	1e-05	1e-05	-2e-05	1e-05	1
880	1e-05	0	0	-2e-05	-1e-05	-2e-05	0	-1e-05	1
881	1e-05	0	0	-2e-05	-1e-05	-2e-05	0	-1e-05	1
882	1e-05	0	0	-2e-05	-1e-05	-2e-05	0	-1e-05	1
883	1e-05	0	0	-2e-05	-1e-05	-2e-05	0	-1e-05	1
884	1e-05	0	0	-2e-05	-1e-05	-2e-05	0	-1e-05	1
885	1e-05	0	0	-2e-05	-1e-05	-2e-05	0	-1e-05	1
886	1e-05	0	0	-2e-05	-1e-05	-2e-05	0	-1e-05	1
887	1e-05	0	0	-2e-05	-1e-05	-2e-05	0	-1e-05	1
888	1e-05	0	0	-2e-05	-1e-05	-2e-05	0	-1e-05	1
889	1e-05	0	0	-2e-05	-1e-05	-2e-05	0	-1e-05	1
890	1e-05	0	0	-2e-05	-1e-05	-2e-05	0	-1e-05	1
891	1e-05	0	0	-2e-05	-1e-05	-2e-05	0	-1e-05	1
892	1e-05	0	0	-2e-05	-1e-05	-2e-05	0	-1e-05	1
893	1e-05	0	0	-2e-05	-1e-05	-2e-05	0	-1e-05	1
894	1e-05	0	0	-2e-05	-1e-05	-2e-05	0	-1e-05	1
895	1e-05	0	0	-2e-05	-1e-05	-2e-05	0	-1e-05	1
896	1e-05	0	0	-2e-05	-1e-05	-2e-05	0	-1e-05	1
897	1e-05	0	0	-2e-05	-1e-05	-2e-05	0	-1e-05	1
898	1e-05	0	0	-2e-05	-1e-05	-2e-05	0	-1e-05	1
899	1e-05	0	0	-2e-05	-1e-05	-2e-05	0	-1e-05	1
900	1e-05	0	0	-2e-05	-1e-05	-2e-05	0	-1e-05	1
901	-6e-05	-2e-05	-3e-05	1e-05	-3e-05	-5e-05	6e-05	-0.00023	1
902	0	2e-05	-2e-05	0	0	-1e-05	-2e-05	0	1
903	0	2e-05	-2e-05	0	0	-1e-05	-2e-05	0	1
904	0	2e-05	-2e-05	0	0	-1e-05	-2e-05	0	1
905	0	2e-05	-2e-05	0	0	-1e-05	-2e-05	0	1
906	0	2e-05	-2e-05	0	0	-1e-05	-2e-05	0	1
907	0	2e-05	-2e-05	0	0	-1e-05	-2e-05	0	1
908	0	2e-05	-2e-05	0	0	-1e-05	-2e-05	0	1
909	0	2e-05	-2e-05	0	0	-1e-05	-2e-05	0	1
912	0	2e-05	-2e-05	0	0	-1e-05	-2e-05	0	1
913	0	2e-05	-2e-05	0	0	-1e-05	-2e-05	0	1
914	0	2e-05	-2e-05	0	0	-1e-05	-2e-05	0	1
915	0	2e-05	-2e-05	0	0	-1e-05	-2e-05	0	1
916	0	-1e-05	0	-2e-05	-2e-05	-3e-05	0	2e-05	1
917	2e-05	-2e-05	-2e-05	-1e-05	-1e-05	-1e-05	1e-05	-6e-05	1
918	2e-05	-2e-05	-2e-05	-1e-05	-1e-05	-1e-05	1e-05	-6e-05	1
919	2e-05	-2e-05	-2e-05	-1e-05	-1e-05	-1e-05	1e-05	-6e-05	1
920	2e-05	-2e-05	-2e-05	-1e-05	-1e-05	-1e-05	1e-05	-6e-05	1
921	2e-05	-2e-05	-2e-05	-1e-05	-1e-05	-1e-05	1e-05	-6e-05	1
922	2e-05	-2e-05	-2e-05	-1e-05	-1e-05	-1e-05	1e-05	-6e-05	1
923	2e-05	-2e-05	-2e-05	-1e-05	-1e-05	-1e-05	1e-05	-6e-05	1
924	2e-05	-2e-05	-2e-05	-1e-05	-1e-05	-1e-05	1e-05	-6e-05	1
925	2e-05	-2e-05	-2e-05	-1e-05	-1e-05	-1e-05	1e-05	-6e-05	1
926	2e-05	-2e-05	-2e-05	-1e-05	-1e-05	-1e-05	1e-05	-6e-05	1
927	2e-05	-2e-05	-2e-05	-1e-05	-1e-05	-1e-05	1e-05	-6e-05	1
928	2e-05	-2e-05	-2e-05	-1e-05	-1e-05	-1e-05	1e-05	-6e-05	1
929	2e-05	-2e-05	-2e-05	-1e-05	-1e-05	-1e-05	1e-05	-6e-05	1
930	2e-05	-2e-05	-2e-05	-1e-05	-1e-05	-1e-05	1e-05	-6e-05	1
931	2e-05	-2e-05	-2e-05	-1e-05	-1e-05	-1e-05	1e-05	-6e-05	1
932	2e-05	-2e-05	-2e-05	-1e-05	-1e-05	-1e-05	1e-05	-6e-05	1
933	2e-05	-2e-05	-2e-05	-1e-05	-1e-05	-1e-05	1e-05	-6e-05	1
934	2e-05	-2e-05	-2e-05	-1e-05	-1e-05	-1e-05	1e-05	-6e-05	1
935	2e-05	-2e-05	-2e-05	-1e-05	-1e-05	-1e-05	1e-05	-6e-05	1
936	2e-05	-2e-05	-2e-05	-1e-05	-1e-05	-1e-05	1e-05	-6e-05	1
937	2e-05	-2e-05	-2e-05	-1e-05	-1e-05	-1e-05	1e-05	-6e-05	1
938	1e-05	-2e-05	0	-1e-05	2e-05	1e-05	-1e-05	5e-05	1
939	1e-05	-2e-05	0	-1e-05	2e-05	1e-05	-1e-05	5e-05	1
940	-2e-05	-1e-05	4e-05	-1e-05	0	-3e-05	-3e-05	-1e-05	1
941	-2e-05	-1e-05	4e-05	-1e-05	0	-3e-05	-3e-05	-1e-05	1
942	-2e-05	-1e-05	4e-05	-1e-05	0	-3e-05	-3e-05	-1e-05	1
943	-2e-05	-1e-05	4e-05	-1e-05	0	-3e-05	-3e-05	-1e-05	1
944	-2e-05	-1e-05	4e-05	-1e-05	0	-3e-05	-3e-05	-1e-05	1
945	-2e-05	-1e-05	4e-05	-1e-05	0	-3e-05	-3e-05	-1e-05	1
946	-2e-05	-1e-05	4e-05	-1e-05	0	-3e-05	-3e-05	-1e-05	1
947	-2e-05	-1e-05	4e-05	-1e-05	0	-3e-05	-3e-05	-1e-05	1
948	-2e-05	-1e-05	4e-05	-1e-05	0	-3e-05	-3e-05	-1e-05	1
949	-2e-05	-1e-05	4e-05	-1e-05	0	-3e-05	-3e-05	-1e-05	1
950	-2e-05	-1e-05	4e-05	-1e-05	0	-3e-05	-3e-05	-1e-05	1
951	-2e-05	-1e-05	4e-05	-1e-05	0	-3e-05	-3e-05	-1e-05	1
952	-2e-05	-1e-05	4e-05	-1e-05	0	-3e-05	-3e-05	-1e-05	1
953	-2e-05	-1e-05	4e-05	-1e-05	0	-3e-05	-3e-05	-1e-05	1
954	-2e-05	-1e-05	4e-05	-1e-05	0	-3e-05	-3e-05	-1e-05	1
955	-2e-05	-1e-05	4e-05	-1e-05	0	-3e-05	-3e-05	-1e-05	1
956	-2e-05	-1e-05	4e-05	-1e-05	0	-3e-05	-3e-05	-1e-05	1
957	-2e-05	-1e-05	4e-05	-1e-05	0	-3e-05	-3e-05	-1e-05	1
958	-2e-05	-1e-05	4e-05	-1e-05	0	-3e-05	-3e-05	-1e-05	1
959	-2e-05	-1e-05	4e-05	-1e-05	0	-3e-05	-3e-05	-1e-05	1
960	-2e-05	-1e-05	4e-05	-1e-05	0	-3e-05	-3e-05	-1e-05	1
961	-3e-05	-3e-05	-1e-05	-3e-05	-2e-05	0	0	6e-05	1
962	5e-05	2e-05	2e-05	1e-05	-1e-05	3e-05	6e-05	2e-05	1
963	5e-05	2e-05	2e-05	1e-05	-1e-05	3e-05	6e-05	2e-05	1
964	5e-05	2e-05	2e-05	1e-05	-1e-05	3e-05	6e-05	2e-05	1
965	5e-05	2e-05	2e-05	1e-05	-1e-05	3e-05	6e-05	2e-05	1
966	5e-05	2e-05	2e-05	1e-05	-1e-05	3e-05	6e-05	2e-05	1
967	5e-05	2e-05	2e-05	1e-05	-1e-05	3e-05	6e-05	2e-05	1
968	5e-05	2e-05	2e-05	1e-05	-1e-05	3e-05	6e-05	2e-05	1
969	5e-05	2e-05	2e-05	1e-05	-1e-05	3e-05	6e-05	2e-05	1
970	5e-05	2e-05	2e-05	1e-05	-1e-05	3e-05	6e-05	2e-05	1
971	5e-05	2e-05	2e-05	1e-05	-1e-05	3e-05	6e-05	2e-05	1
972	5e-05	2e-05	2e-05	1e-05	-1e-05	3e-05	6e-05	2e-05	1
973	5e-05	2e-05	2e-05	1e-05	-1e-05	3e-05	6e-05	2e-05	1
974	5e-05	2e-05	2e-05	1e-05	-1e-05	3e-05	6e-05	2e-05	1
975	5e-05	2e-05	2e-05	1e-05	-1e-05	3e-05	6e-05	2e-05	1
976	-1e-05	-1e-05	1e-05	-3e-05	-3e-05	-2e-05	-8e-05	-0.00012	1
977	-3e-05	1e-05	-2e-05	-1e-05	-1e-05	-5e-05	0.00011	0	1
978	-3e-05	1e-05	-2e-05	-1e-05	-1e-05	-5e-05	0.00011	0	1
979	-3e-05	1e-05	-2e-05	-1e-05	-1e-05	-5e-05	0.00011	0	1
980	-3e-05	1e-05	-2e-05	-1e-05	-1e-05	-5e-05	0.00011	0	1
981	-3e-05	1e-05	-2e-05	-1e-05	-1e-05	-5e-05	0.00011	0	1
982	-3e-05	1e-05	-2e-05	-1e-05	-1e-05	-5e-05	0.00011	0	1
983	-3e-05	1e-05	-2e-05	-1e-05	-1e-05	-5e-05	0.00011	0	1
984	-3e-05	1e-05	-2e-05	-1e-05	-1e-05	-5e-05	0.00011	0	1
985	-3e-05	1e-05	-2e-05	-1e-05	-1e-05	-5e-05	0.00011	0	1
986	-3e-05	1e-05	-2e-05	-1e-05	-1e-05	-5e-05	0.00011	0	1
987	-3e-05	1e-05	-2e-05	-1e-05	-1e-05	-5e-05	0.00011	0	1
988	-3e-05	1e-05	-2e-05	-1e-05	-1e-05	-5e-05	0.00011	0	1
989	-3e-05	1e-05	-2e-05	-1e-05	-1e-05	-5e-05	0.00011	0	1
990	-3e-05	1e-05	-2e-05	-1e-05	-1e-05	-5e-05	0.00011	0	1
991	-3e-05	1e-05	-2e-05	-1e-05	-1e-05	-5e-05	0.00011	0	1
992	-3e-05	1e-05	-2e-05	-1e-05	-1e-05	-5e-05	0.00011	0	1
993	-3e-05	1e-05	-2e-05	-1e-05	-1e-05	-5e-05	0.00011	0	1
994	-3e-05	1e-05	-2e-05	-1e-05	-1e-05	-5e-05	0.00011	0	1
995	-3e-05	1e-05	-2e-05	-1e-05	-1e-05	-5e-05	0.00011	0	1
996	-3e-05	1e-05	-2e-05	-1e-05	-1e-05	-5e-05	0.00011	0	1
997	-3e-05	1e-05	-2e-05	-1e-05	-1e-05	-5e-05	0.00011	0	1
998	1e-05	0	-4e-05	1e-05	1e-05	-1e-05	3e-05	2e-05	1
999	1e-05	0	-4e-05	1e-05	1e-05	-1e-05	3e-05	2e-05	1
1000	-2e-05	-4e-05	-4e-05	-5e-05	-2e-05	-1e-05	-7e-05	1e-05	1
1001	-2e-05	-4e-05	-4e-05	-5e-05	-2e-05	-1e-05	-7e-05	1e-05	1
1002	-2e-05	-4e-05	-4e-05	-5e-05	-2e-05	-1e-05	-7e-05	1e-05	1
1003	-2e-05	-4e-05	-4e-05	-5e-05	-2e-05	-1e-05	-7e-05	1e-05	1
1005	-2e-05	-4e-05	-4e-05	-5e-05	-2e-05	-1e-05	-7e-05	1e-05	1
1006	-2e-05	-4e-05	-4e-05	-5e-05	-2e-05	-1e-05	-7e-05	1e-05	1
1008	-2e-05	-4e-05	-4e-05	-5e-05	-2e-05	-1e-05	-7e-05	1e-05	1
1009	-2e-05	-4e-05	-4e-05	-5e-05	-2e-05	-1e-05	-7e-05	1e-05	1
1010	-2e-05	-4e-05	-4e-05	-5e-05	-2e-05	-1e-05	-7e-05	1e-05	1
1011	-2e-05	-4e-05	-4e-05	-5e-05	-2e-05	-1e-05	-7e-05	1e-05	1
1012	-2e-05	-4e-05	-4e-05	-5e-05	-2e-05	-1e-05	-7e-05	1e-05	1
1013	-2e-05	-4e-05	-4e-05	-5e-05	-2e-05	-1e-05	-7e-05	1e-05	1
1014	-2e-05	-4e-05	-4e-05	-5e-05	-2e-05	-1e-05	-7e-05	1e-05	1
1015	-2e-05	-4e-05	-4e-05	-5e-05	-2e-05	-1e-05	-7e-05	1e-05	1
1016	-2e-05	-4e-05	-4e-05	-5e-05	-2e-05	-1e-05	-7e-05	1e-05	1
1017	-2e-05	-4e-05	-4e-05	-5e-05	-2e-05	-1e-05	-7e-05	1e-05	1
1018	-2e-05	-4e-05	-4e-05	-5e-05	-2e-05	-1e-05	-7e-05	1e-05	1
1019	-2e-05	-4e-05	-4e-05	-5e-05	-2e-05	-1e-05	-7e-05	1e-05	1
1020	-2e-05	-4e-05	-4e-05	-5e-05	-2e-05	-1e-05	-7e-05	1e-05	1
1021	-3e-05	-2e-05	-2e-05	1e-05	0	-1e-05	2e-05	0.00012	1
1022	-3e-05	-2e-05	-2e-05	1e-05	0	-1e-05	2e-05	0.00012	1
1023	-1e-05	-2e-05	-1e-05	-1e-05	-1e-05	-2e-05	-2e-05	0	1
1024	-1e-05	-2e-05	-1e-05	-1e-05	-1e-05	-2e-05	-2e-05	0	1
1025	-1e-05	-2e-05	-1e-05	-1e-05	-1e-05	-2e-05	-2e-05	0	1
1026	-1e-05	-2e-05	-1e-05	-1e-05	-1e-05	-2e-05	-2e-05	0	1
1027	-1e-05	-2e-05	-1e-05	-1e-05	-1e-05	-2e-05	-2e-05	0	1
1028	-1e-05	-2e-05	-1e-05	-1e-05	-1e-05	-2e-05	-2e-05	0	1
1029	-1e-05	-2e-05	-1e-05	-1e-05	-1e-05	-2e-05	-2e-05	0	1
1030	-1e-05	-2e-05	-1e-05	-1e-05	-1e-05	-2e-05	-2e-05	0	1
1031	-1e-05	-2e-05	-1e-05	-1e-05	-1e-05	-2e-05	-2e-05	0	1
1032	-1e-05	-2e-05	-1e-05	-1e-05	-1e-05	-2e-05	-2e-05	0	1
1033	-1e-05	-2e-05	-1e-05	-1e-05	-1e-05	-2e-05	-2e-05	0	1
1034	-1e-05	-2e-05	-1e-05	-1e-05	-1e-05	-2e-05	-2e-05	0	1
1035	0	-5e-05	0	-1e-05	-3e-05	-1e-05	0	-3e-05	1
1036	0	-5e-05	0	-1e-05	-3e-05	-1e-05	0	-3e-05	1
1037	0	-5e-05	0	-1e-05	-3e-05	-1e-05	0	-3e-05	1
1038	0	-5e-05	0	-1e-05	-3e-05	-1e-05	0	-3e-05	1
1039	0	-5e-05	0	-1e-05	-3e-05	-1e-05	0	-3e-05	1
1040	0	-5e-05	0	-1e-05	-3e-05	-1e-05	0	-3e-05	1
1041	0	-5e-05	0	-1e-05	-3e-05	-1e-05	0	-3e-05	1
1042	1e-05	-2e-05	1e-05	0	1e-05	-1e-05	-3e-05	3e-05	1
1043	1e-05	-2e-05	1e-05	0	1e-05	-1e-05	-3e-05	3e-05	1
1044	1e-05	-2e-05	1e-05	0	1e-05	-1e-05	-3e-05	3e-05	1
1045	1e-05	-2e-05	1e-05	0	1e-05	-1e-05	-3e-05	3e-05	1
1046	1e-05	-2e-05	1e-05	0	1e-05	-1e-05	-3e-05	3e-05	1
1047	1e-05	-2e-05	1e-05	0	1e-05	-1e-05	-3e-05	3e-05	1
1048	1e-05	-2e-05	1e-05	0	1e-05	-1e-05	-3e-05	3e-05	1
1049	1e-05	-2e-05	1e-05	0	1e-05	-1e-05	-3e-05	3e-05	1
1050	1e-05	-2e-05	1e-05	0	1e-05	-1e-05	-3e-05	3e-05	1
1051	1e-05	-2e-05	1e-05	0	1e-05	-1e-05	-3e-05	3e-05	1
1052	1e-05	-2e-05	1e-05	0	1e-05	-1e-05	-3e-05	3e-05	1
1053	1e-05	-2e-05	1e-05	0	1e-05	-1e-05	-3e-05	3e-05	1
1054	1e-05	-2e-05	1e-05	0	1e-05	-1e-05	-3e-05	3e-05	1
1055	1e-05	-2e-05	1e-05	0	1e-05	-1e-05	-3e-05	3e-05	1
1056	1e-05	-2e-05	1e-05	0	1e-05	-1e-05	-3e-05	3e-05	1
1057	1e-05	-2e-05	1e-05	0	1e-05	-1e-05	-3e-05	3e-05	1
1058	3e-05	3e-05	1e-05	-1e-05	0	0	-8e-05	-0.00017	1
1059	3e-05	3e-05	1e-05	-1e-05	0	0	-8e-05	-0.00017	1
1060	-1e-05	0	-6e-05	-2e-05	-2e-05	0	0	1e-05	1
1061	-1e-05	0	-6e-05	-2e-05	-2e-05	0	0	1e-05	1
1062	-1e-05	0	-6e-05	-2e-05	-2e-05	0	0	1e-05	1
1064	-1e-05	0	-6e-05	-2e-05	-2e-05	0	0	1e-05	1
1065	-1e-05	0	-6e-05	-2e-05	-2e-05	0	0	1e-05	1
1066	-1e-05	0	-6e-05	-2e-05	-2e-05	0	0	1e-05	1
1067	-1e-05	0	-6e-05	-2e-05	-2e-05	0	0	1e-05	1
1068	-1e-05	0	-6e-05	-2e-05	-2e-05	0	0	1e-05	1
1069	-1e-05	0	-6e-05	-2e-05	-2e-05	0	0	1e-05	1
1070	-1e-05	0	-6e-05	-2e-05	-2e-05	0	0	1e-05	1
1071	-1e-05	0	-6e-05	-2e-05	-2e-05	0	0	1e-05	1
1072	-1e-05	0	-6e-05	-2e-05	-2e-05	0	0	1e-05	1
1073	-1e-05	0	-6e-05	-2e-05	-2e-05	0	0	1e-05	1
1074	-1e-05	0	-6e-05	-2e-05	-2e-05	0	0	1e-05	1
1075	-1e-05	0	-6e-05	-2e-05	-2e-05	0	0	1e-05	1
1076	-1e-05	0	-6e-05	-2e-05	-2e-05	0	0	1e-05	1
1077	-1e-05	0	-6e-05	-2e-05	-2e-05	0	0	1e-05	1
1078	-1e-05	0	-6e-05	-2e-05	-2e-05	0	0	1e-05	1
1079	-1e-05	0	-6e-05	-2e-05	-2e-05	0	0	1e-05	1
1080	-1e-05	0	-6e-05	-2e-05	-2e-05	0	0	1e-05	1
1081	-3e-05	-3e-05	-1e-05	0	0	-1e-05	-4e-05	1e-05	1
1082	-4e-05	-1e-05	-2e-05	-1e-05	0	-2e-05	-3e-05	-9e-05	1
1083	-4e-05	-1e-05	-2e-05	-1e-05	0	-2e-05	-3e-05	-9e-05	1
1084	-4e-05	-1e-05	-2e-05	-1e-05	0	-2e-05	-3e-05	-9e-05	1
1085	-4e-05	-1e-05	-2e-05	-1e-05	0	-2e-05	-3e-05	-9e-05	1
1086	-4e-05	-1e-05	-2e-05	-1e-05	0	-2e-05	-3e-05	-9e-05	1
1087	-4e-05	-1e-05	-2e-05	-1e-05	0	-2e-05	-3e-05	-9e-05	1
1088	-4e-05	-1e-05	-2e-05	-1e-05	0	-2e-05	-3e-05	-9e-05	1
1089	-4e-05	-1e-05	-2e-05	-1e-05	0	-2e-05	-3e-05	-9e-05	1
1090	-4e-05	-1e-05	-2e-05	-1e-05	0	-2e-05	-3e-05	-9e-05	1
1091	-4e-05	-1e-05	-2e-05	-1e-05	0	-2e-05	-3e-05	-9e-05	1
1092	-4e-05	-1e-05	-2e-05	-1e-05	0	-2e-05	-3e-05	-9e-05	1
1093	-4e-05	-1e-05	-2e-05	-1e-05	0	-2e-05	-3e-05	-9e-05	1
1094	-4e-05	-1e-05	-2e-05	-1e-05	0	-2e-05	-3e-05	-9e-05	1
1095	-2e-05	0	-3e-05	-3e-05	-3e-05	-2e-05	3e-05	2e-05	1
1096	-2e-05	0	-3e-05	-3e-05	-3e-05	-2e-05	3e-05	2e-05	1
1097	-2e-05	0	-3e-05	-3e-05	-3e-05	-2e-05	3e-05	2e-05	1
1098	-2e-05	0	-3e-05	-3e-05	-3e-05	-2e-05	3e-05	2e-05	1
1099	-2e-05	0	-3e-05	-3e-05	-3e-05	-2e-05	3e-05	2e-05	1
1100	-2e-05	0	-3e-05	-3e-05	-3e-05	-2e-05	3e-05	2e-05	1
1101	-2e-05	0	-3e-05	-3e-05	-3e-05	-2e-05	3e-05	2e-05	1
1102	-2e-05	-1e-05	2e-05	-1e-05	-1e-05	1e-05	-3e-05	6e-05	1
1103	-2e-05	-1e-05	2e-05	-1e-05	-1e-05	1e-05	-3e-05	6e-05	1
1104	-2e-05	-1e-05	2e-05	-1e-05	-1e-05	1e-05	-3e-05	6e-05	1
1105	-2e-05	-1e-05	2e-05	-1e-05	-1e-05	1e-05	-3e-05	6e-05	1
1106	-2e-05	-1e-05	2e-05	-1e-05	-1e-05	1e-05	-3e-05	6e-05	1
1107	-2e-05	-1e-05	2e-05	-1e-05	-1e-05	1e-05	-3e-05	6e-05	1
1108	-2e-05	-1e-05	2e-05	-1e-05	-1e-05	1e-05	-3e-05	6e-05	1
1109	-2e-05	-1e-05	2e-05	-1e-05	-1e-05	1e-05	-3e-05	6e-05	1
1114	-2e-05	-1e-05	2e-05	-1e-05	-1e-05	1e-05	-3e-05	6e-05	1
1115	-2e-05	-1e-05	2e-05	-1e-05	-1e-05	1e-05	-3e-05	6e-05	1
1116	-2e-05	-1e-05	2e-05	-1e-05	-1e-05	1e-05	-3e-05	6e-05	1
1117	-2e-05	-1e-05	2e-05	-1e-05	-1e-05	1e-05	-3e-05	6e-05	1
1118	-2e-05	-2e-05	-1e-05	-1e-05	-1e-05	-1e-05	0	-1e-05	1
1119	-2e-05	-2e-05	-1e-05	-1e-05	-1e-05	-1e-05	0	-1e-05	1
1120	0	-3e-05	3e-05	0	-1e-05	1e-05	-3e-05	-3e-05	1
1121	0	-3e-05	3e-05	0	-1e-05	1e-05	-3e-05	-3e-05	1
1122	0	-3e-05	3e-05	0	-1e-05	1e-05	-3e-05	-3e-05	1
1123	0	-3e-05	3e-05	0	-1e-05	1e-05	-3e-05	-3e-05	1
1124	0	-3e-05	3e-05	0	-1e-05	1e-05	-3e-05	-3e-05	1
1125	0	-3e-05	3e-05	0	-1e-05	1e-05	-3e-05	-3e-05	1
1126	0	-3e-05	3e-05	0	-1e-05	1e-05	-3e-05	-3e-05	1
1127	0	-3e-05	3e-05	0	-1e-05	1e-05	-3e-05	-3e-05	1
1128	0	-3e-05	3e-05	0	-1e-05	1e-05	-3e-05	-3e-05	1
1129	0	-3e-05	3e-05	0	-1e-05	1e-05	-3e-05	-3e-05	1
1130	0	-3e-05	3e-05	0	-1e-05	1e-05	-3e-05	-3e-05	1
1131	0	-3e-05	3e-05	0	-1e-05	1e-05	-3e-05	-3e-05	1
1132	0	-3e-05	3e-05	0	-1e-05	1e-05	-3e-05	-3e-05	1
1133	0	-3e-05	3e-05	0	-1e-05	1e-05	-3e-05	-3e-05	1
1134	0	-3e-05	3e-05	0	-1e-05	1e-05	-3e-05	-3e-05	1
1135	0	-3e-05	3e-05	0	-1e-05	1e-05	-3e-05	-3e-05	1
1136	0	-3e-05	3e-05	0	-1e-05	1e-05	-3e-05	-3e-05	1
1137	0	-3e-05	3e-05	0	-1e-05	1e-05	-3e-05	-3e-05	1
1138	0	-3e-05	3e-05	0	-1e-05	1e-05	-3e-05	-3e-05	1
1139	0	-3e-05	3e-05	0	-1e-05	1e-05	-3e-05	-3e-05	1
1140	0	-3e-05	3e-05	0	-1e-05	1e-05	-3e-05	-3e-05	1
1141	-1e-05	-3e-05	0	0	-1e-05	-1e-05	4e-05	-1e-05	1
1142	0	-3e-05	0	-1e-05	0	-4e-05	-9e-05	-4e-05	1
1143	0	-3e-05	0	-1e-05	0	-4e-05	-9e-05	-4e-05	1
1144	0	-3e-05	0	-1e-05	0	-4e-05	-9e-05	-4e-05	1
1145	0	-3e-05	0	-1e-05	0	-4e-05	-9e-05	-4e-05	1
1146	0	-3e-05	0	-1e-05	0	-4e-05	-9e-05	-4e-05	1
1147	0	-3e-05	0	-1e-05	0	-4e-05	-9e-05	-4e-05	1
1148	0	-3e-05	0	-1e-05	0	-4e-05	-9e-05	-4e-05	1
1149	0	-3e-05	0	-1e-05	0	-4e-05	-9e-05	-4e-05	1
1150	0	-3e-05	0	-1e-05	0	-4e-05	-9e-05	-4e-05	1
1151	0	-3e-05	0	-1e-05	0	-4e-05	-9e-05	-4e-05	1
1152	0	-3e-05	0	-1e-05	0	-4e-05	-9e-05	-4e-05	1
1153	0	-3e-05	0	-1e-05	0	-4e-05	-9e-05	-4e-05	1
1154	0	-3e-05	0	-1e-05	0	-4e-05	-9e-05	-4e-05	1
1155	0	1e-05	-1e-05	-1e-05	0	0	-2e-05	3e-05	1
1156	0	1e-05	-1e-05	-1e-05	0	0	-2e-05	3e-05	1
1158	0	1e-05	-1e-05	-1e-05	0	0	-2e-05	3e-05	1
1159	0	1e-05	-1e-05	-1e-05	0	0	-2e-05	3e-05	1
1160	0	1e-05	-1e-05	-1e-05	0	0	-2e-05	3e-05	1
1161	0	1e-05	-1e-05	-1e-05	0	0	-2e-05	3e-05	1
1162	0	1e-05	-2e-05	-1e-05	-3e-05	-2e-05	2e-05	-2e-05	1
1163	0	1e-05	-2e-05	-1e-05	-3e-05	-2e-05	2e-05	-2e-05	1
1164	0	1e-05	-2e-05	-1e-05	-3e-05	-2e-05	2e-05	-2e-05	1
1165	0	1e-05	-2e-05	-1e-05	-3e-05	-2e-05	2e-05	-2e-05	1
1166	0	1e-05	-2e-05	-1e-05	-3e-05	-2e-05	2e-05	-2e-05	1
1167	0	1e-05	-2e-05	-1e-05	-3e-05	-2e-05	2e-05	-2e-05	1
1168	0	1e-05	-2e-05	-1e-05	-3e-05	-2e-05	2e-05	-2e-05	1
1169	0	1e-05	-2e-05	-1e-05	-3e-05	-2e-05	2e-05	-2e-05	1
1170	0	1e-05	-2e-05	-1e-05	-3e-05	-2e-05	2e-05	-2e-05	1
1171	0	1e-05	-2e-05	-1e-05	-3e-05	-2e-05	2e-05	-2e-05	1
1172	0	1e-05	-2e-05	-1e-05	-3e-05	-2e-05	2e-05	-2e-05	1
1173	0	1e-05	-2e-05	-1e-05	-3e-05	-2e-05	2e-05	-2e-05	1
1174	0	1e-05	-2e-05	-1e-05	-3e-05	-2e-05	2e-05	-2e-05	1
1175	0	1e-05	-2e-05	-1e-05	-3e-05	-2e-05	2e-05	-2e-05	1
1176	0	1e-05	-2e-05	-1e-05	-3e-05	-2e-05	2e-05	-2e-05	1
1177	0	1e-05	-2e-05	-1e-05	-3e-05	-2e-05	2e-05	-2e-05	1
1178	1e-05	-2e-05	-4e-05	-3e-05	0	-2e-05	-8e-05	0.00017	1
1179	1e-05	-2e-05	-4e-05	-3e-05	0	-2e-05	-8e-05	0.00017	1
1180	0	0	-2e-05	0	-2e-05	0	1e-05	-0.00011	1
1181	0	0	-2e-05	0	-2e-05	0	1e-05	-0.00011	1
1182	0	0	-2e-05	0	-2e-05	0	1e-05	-0.00011	1
1183	0	0	-2e-05	0	-2e-05	0	1e-05	-0.00011	1
1184	0	0	-2e-05	0	-2e-05	0	1e-05	-0.00011	1
1185	0	0	-2e-05	0	-2e-05	0	1e-05	-0.00011	1
1186	0	0	-2e-05	0	-2e-05	0	1e-05	-0.00011	1
1187	0	0	-2e-05	0	-2e-05	0	1e-05	-0.00011	1
1188	0	0	-2e-05	0	-2e-05	0	1e-05	-0.00011	1
1189	0	0	-2e-05	0	-2e-05	0	1e-05	-0.00011	1
1190	0	0	-2e-05	0	-2e-05	0	1e-05	-0.00011	1
1191	0	0	-2e-05	0	-2e-05	0	1e-05	-0.00011	1
1192	0	0	-2e-05	0	-2e-05	0	1e-05	-0.00011	1
1193	0	0	-2e-05	0	-2e-05	0	1e-05	-0.00011	1
1194	0	0	-2e-05	0	-2e-05	0	1e-05	-0.00011	1
1195	0	0	-2e-05	0	-2e-05	0	1e-05	-0.00011	1
1196	0	0	-2e-05	0	-2e-05	0	1e-05	-0.00011	1
1197	0	0	-2e-05	0	-2e-05	0	1e-05	-0.00011	1
1198	0	0	-2e-05	0	-2e-05	0	1e-05	-0.00011	1
1199	0	0	-2e-05	0	-2e-05	0	1e-05	-0.00011	1
1200	0	0	-2e-05	0	-2e-05	0	1e-05	-0.00011	1
1201	-1e-05	1e-05	2e-05	0	-3e-05	-2e-05	3e-05	-5e-05	1
1203	0	-5e-05	-2e-05	-3e-05	0	2e-05	-2e-05	5e-05	1
1204	0	-5e-05	-2e-05	-3e-05	0	2e-05	-2e-05	5e-05	1
1205	0	-5e-05	-2e-05	-3e-05	0	2e-05	-2e-05	5e-05	1
1206	0	-5e-05	-2e-05	-3e-05	0	2e-05	-2e-05	5e-05	1
1207	0	-5e-05	-2e-05	-3e-05	0	2e-05	-2e-05	5e-05	1
1208	0	-5e-05	-2e-05	-3e-05	0	2e-05	-2e-05	5e-05	1
1209	0	-5e-05	-2e-05	-3e-05	0	2e-05	-2e-05	5e-05	1
1210	0	-5e-05	-2e-05	-3e-05	0	2e-05	-2e-05	5e-05	1
1211	0	-5e-05	-2e-05	-3e-05	0	2e-05	-2e-05	5e-05	1
1212	0	-5e-05	-2e-05	-3e-05	0	2e-05	-2e-05	5e-05	1
1213	0	-5e-05	-2e-05	-3e-05	0	2e-05	-2e-05	5e-05	1
1214	0	-5e-05	-2e-05	-3e-05	0	2e-05	-2e-05	5e-05	1
1215	-3e-05	-1e-05	-1e-05	0	-2e-05	-3e-05	3e-05	-5e-05	1
1216	-3e-05	-1e-05	-1e-05	0	-2e-05	-3e-05	3e-05	-5e-05	1
1217	-3e-05	-1e-05	-1e-05	0	-2e-05	-3e-05	3e-05	-5e-05	1
1218	-3e-05	-1e-05	-1e-05	0	-2e-05	-3e-05	3e-05	-5e-05	1
1219	-3e-05	-1e-05	-1e-05	0	-2e-05	-3e-05	3e-05	-5e-05	1
1220	-3e-05	-1e-05	-1e-05	0	-2e-05	-3e-05	3e-05	-5e-05	1
1221	-3e-05	-1e-05	-1e-05	0	-2e-05	-3e-05	3e-05	-5e-05	1
1222	-3e-05	-1e-05	2e-05	1e-05	-1e-05	-1e-05	1e-05	-1e-05	1
1223	-3e-05	-1e-05	2e-05	1e-05	-1e-05	-1e-05	1e-05	-1e-05	1
1224	-3e-05	-1e-05	2e-05	1e-05	-1e-05	-1e-05	1e-05	-1e-05	1
1225	-3e-05	-1e-05	2e-05	1e-05	-1e-05	-1e-05	1e-05	-1e-05	1
1226	-3e-05	-1e-05	2e-05	1e-05	-1e-05	-1e-05	1e-05	-1e-05	1
1227	-3e-05	-1e-05	2e-05	1e-05	-1e-05	-1e-05	1e-05	-1e-05	1
1228	-3e-05	-1e-05	2e-05	1e-05	-1e-05	-1e-05	1e-05	-1e-05	1
1229	-3e-05	-1e-05	2e-05	1e-05	-1e-05	-1e-05	1e-05	-1e-05	1
1230	-3e-05	-1e-05	2e-05	1e-05	-1e-05	-1e-05	1e-05	-1e-05	1
1231	-3e-05	-1e-05	2e-05	1e-05	-1e-05	-1e-05	1e-05	-1e-05	1
1232	-3e-05	-1e-05	2e-05	1e-05	-1e-05	-1e-05	1e-05	-1e-05	1
1233	-3e-05	-1e-05	2e-05	1e-05	-1e-05	-1e-05	1e-05	-1e-05	1
1234	-3e-05	-1e-05	2e-05	1e-05	-1e-05	-1e-05	1e-05	-1e-05	1
1235	-3e-05	-1e-05	2e-05	1e-05	-1e-05	-1e-05	1e-05	-1e-05	1
1236	-3e-05	-1e-05	2e-05	1e-05	-1e-05	-1e-05	1e-05	-1e-05	1
1237	-3e-05	-1e-05	2e-05	1e-05	-1e-05	-1e-05	1e-05	-1e-05	1
1238	-2e-05	-3e-05	-2e-05	-2e-05	1e-05	3e-05	4e-05	-2e-05	1
1239	-2e-05	-3e-05	-2e-05	-2e-05	1e-05	3e-05	4e-05	-2e-05	1
1240	-2e-05	2e-05	-2e-05	0	-3e-05	2e-05	1e-05	0	1
1241	-2e-05	2e-05	-2e-05	0	-3e-05	2e-05	1e-05	0	1
1242	-2e-05	2e-05	-2e-05	0	-3e-05	2e-05	1e-05	0	1
1243	-2e-05	2e-05	-2e-05	0	-3e-05	2e-05	1e-05	0	1
1244	-2e-05	2e-05	-2e-05	0	-3e-05	2e-05	1e-05	0	1
1245	-2e-05	2e-05	-2e-05	0	-3e-05	2e-05	1e-05	0	1
1247	-2e-05	2e-05	-2e-05	0	-3e-05	2e-05	1e-05	0	1
1248	-2e-05	2e-05	-2e-05	0	-3e-05	2e-05	1e-05	0	1
1249	-2e-05	2e-05	-2e-05	0	-3e-05	2e-05	1e-05	0	1
1251	-2e-05	2e-05	-2e-05	0	-3e-05	2e-05	1e-05	0	1
1252	-2e-05	2e-05	-2e-05	0	-3e-05	2e-05	1e-05	0	1
1253	-2e-05	2e-05	-2e-05	0	-3e-05	2e-05	1e-05	0	1
1254	-2e-05	2e-05	-2e-05	0	-3e-05	2e-05	1e-05	0	1
1255	-2e-05	2e-05	-2e-05	0	-3e-05	2e-05	1e-05	0	1
1256	-2e-05	2e-05	-2e-05	0	-3e-05	2e-05	1e-05	0	1
1257	-2e-05	2e-05	-2e-05	0	-3e-05	2e-05	1e-05	0	1
1258	-2e-05	2e-05	-2e-05	0	-3e-05	2e-05	1e-05	0	1
1259	-2e-05	2e-05	-2e-05	0	-3e-05	2e-05	1e-05	0	1
1260	-2e-05	2e-05	-2e-05	0	-3e-05	2e-05	1e-05	0	1
1261	0	-1e-05	-2e-05	0	-2e-05	-3e-05	-4e-05	0	1
1262	-1e-05	-1e-05	-1e-05	-2e-05	1e-05	1e-05	2e-05	-2e-05	1
1263	-1e-05	-1e-05	-1e-05	-2e-05	1e-05	1e-05	2e-05	-2e-05	1
1264	-1e-05	-1e-05	-1e-05	-2e-05	1e-05	1e-05	2e-05	-2e-05	1
1265	-1e-05	-1e-05	-1e-05	-2e-05	1e-05	1e-05	2e-05	-2e-05	1
1266	-1e-05	-1e-05	-1e-05	-2e-05	1e-05	1e-05	2e-05	-2e-05	1
1267	-1e-05	-1e-05	-1e-05	-2e-05	1e-05	1e-05	2e-05	-2e-05	1
1268	-1e-05	-1e-05	-1e-05	-2e-05	1e-05	1e-05	2e-05	-2e-05	1
1269	-1e-05	-1e-05	-1e-05	-2e-05	1e-05	1e-05	2e-05	-2e-05	1
1270	-1e-05	-1e-05	-1e-05	-2e-05	1e-05	1e-05	2e-05	-2e-05	1
1271	-1e-05	-1e-05	-1e-05	-2e-05	1e-05	1e-05	2e-05	-2e-05	1
1272	-1e-05	-1e-05	-1e-05	-2e-05	1e-05	1e-05	2e-05	-2e-05	1
1273	-1e-05	-1e-05	-1e-05	-2e-05	1e-05	1e-05	2e-05	-2e-05	1
1274	-1e-05	-1e-05	-1e-05	-2e-05	1e-05	1e-05	2e-05	-2e-05	1
1275	0	-1e-05	1e-05	0	-1e-05	-1e-05	0.0001	1e-05	1
1276	0	-1e-05	1e-05	0	-1e-05	-1e-05	0.0001	1e-05	1
1277	0	-1e-05	1e-05	0	-1e-05	-1e-05	0.0001	1e-05	1
1278	0	-1e-05	1e-05	0	-1e-05	-1e-05	0.0001	1e-05	1
1279	0	-1e-05	1e-05	0	-1e-05	-1e-05	0.0001	1e-05	1
1280	0	-1e-05	1e-05	0	-1e-05	-1e-05	0.0001	1e-05	1
1281	0	-1e-05	1e-05	0	-1e-05	-1e-05	0.0001	1e-05	1
1282	-1e-05	-4e-05	-2e-05	-3e-05	0	1e-05	-3e-05	8e-05	1
1283	-1e-05	-4e-05	-2e-05	-3e-05	0	1e-05	-3e-05	8e-05	1
1284	-1e-05	-4e-05	-2e-05	-3e-05	0	1e-05	-3e-05	8e-05	1
1285	-1e-05	-4e-05	-2e-05	-3e-05	0	1e-05	-3e-05	8e-05	1
1286	-1e-05	-4e-05	-2e-05	-3e-05	0	1e-05	-3e-05	8e-05	1
1287	-1e-05	-4e-05	-2e-05	-3e-05	0	1e-05	-3e-05	8e-05	1
1288	-1e-05	-4e-05	-2e-05	-3e-05	0	1e-05	-3e-05	8e-05	1
1289	-1e-05	-4e-05	-2e-05	-3e-05	0	1e-05	-3e-05	8e-05	1
1290	-1e-05	-4e-05	-2e-05	-3e-05	0	1e-05	-3e-05	8e-05	1
1291	-1e-05	-4e-05	-2e-05	-3e-05	0	1e-05	-3e-05	8e-05	1
1292	-1e-05	-4e-05	-2e-05	-3e-05	0	1e-05	-3e-05	8e-05	1
1293	-1e-05	-4e-05	-2e-05	-3e-05	0	1e-05	-3e-05	8e-05	1
1294	-1e-05	-4e-05	-2e-05	-3e-05	0	1e-05	-3e-05	8e-05	1
1295	-1e-05	-4e-05	-2e-05	-3e-05	0	1e-05	-3e-05	8e-05	1
1296	-1e-05	-4e-05	-2e-05	-3e-05	0	1e-05	-3e-05	8e-05	1
1298	-1e-05	-4e-05	-2e-05	-3e-05	0	1e-05	-3e-05	8e-05	1
1299	-1e-05	1e-05	-1e-05	-3e-05	-2e-05	1e-05	-5e-05	-4e-05	1
1300	-2e-05	1e-05	-1e-05	2e-05	-2e-05	-2e-05	0.00014	-6e-05	1
1301	-2e-05	1e-05	-1e-05	2e-05	-2e-05	-2e-05	0.00014	-6e-05	1
1302	-2e-05	1e-05	-1e-05	2e-05	-2e-05	-2e-05	0.00014	-6e-05	1
1303	-2e-05	1e-05	-1e-05	2e-05	-2e-05	-2e-05	0.00014	-6e-05	1
1304	-2e-05	1e-05	-1e-05	2e-05	-2e-05	-2e-05	0.00014	-6e-05	1
1305	-2e-05	1e-05	-1e-05	2e-05	-2e-05	-2e-05	0.00014	-6e-05	1
1306	-2e-05	1e-05	-1e-05	2e-05	-2e-05	-2e-05	0.00014	-6e-05	1
1307	-2e-05	1e-05	-1e-05	2e-05	-2e-05	-2e-05	0.00014	-6e-05	1
1308	-2e-05	1e-05	-1e-05	2e-05	-2e-05	-2e-05	0.00014	-6e-05	1
1309	-2e-05	1e-05	-1e-05	2e-05	-2e-05	-2e-05	0.00014	-6e-05	1
1310	-2e-05	1e-05	-1e-05	2e-05	-2e-05	-2e-05	0.00014	-6e-05	1
1311	-2e-05	1e-05	-1e-05	2e-05	-2e-05	-2e-05	0.00014	-6e-05	1
1312	-2e-05	1e-05	-1e-05	2e-05	-2e-05	-2e-05	0.00014	-6e-05	1
1313	-2e-05	1e-05	-1e-05	2e-05	-2e-05	-2e-05	0.00014	-6e-05	1
1314	-2e-05	1e-05	-1e-05	2e-05	-2e-05	-2e-05	0.00014	-6e-05	1
1315	-2e-05	1e-05	-1e-05	2e-05	-2e-05	-2e-05	0.00014	-6e-05	1
1316	-2e-05	1e-05	-1e-05	2e-05	-2e-05	-2e-05	0.00014	-6e-05	1
1317	-2e-05	1e-05	-1e-05	2e-05	-2e-05	-2e-05	0.00014	-6e-05	1
1318	-2e-05	1e-05	-1e-05	2e-05	-2e-05	-2e-05	0.00014	-6e-05	1
1319	-2e-05	1e-05	-1e-05	2e-05	-2e-05	-2e-05	0.00014	-6e-05	1
1320	-3e-05	-2e-05	-5e-05	-2e-05	-1e-05	1e-05	-1e-05	5e-05	1
1321	-3e-05	-2e-05	-5e-05	-2e-05	-1e-05	1e-05	-1e-05	5e-05	1
1322	-1e-05	-2e-05	-2e-05	-1e-05	-1e-05	-2e-05	-3e-05	-6e-05	1
1323	-1e-05	-2e-05	-2e-05	-1e-05	-1e-05	-2e-05	-3e-05	-6e-05	1
1324	-1e-05	-2e-05	-2e-05	-1e-05	-1e-05	-2e-05	-3e-05	-6e-05	1
1325	-1e-05	-2e-05	-2e-05	-1e-05	-1e-05	-2e-05	-3e-05	-6e-05	1
1326	-1e-05	-2e-05	-2e-05	-1e-05	-1e-05	-2e-05	-3e-05	-6e-05	1
1327	-1e-05	-2e-05	-2e-05	-1e-05	-1e-05	-2e-05	-3e-05	-6e-05	1
1328	-1e-05	-2e-05	-2e-05	-1e-05	-1e-05	-2e-05	-3e-05	-6e-05	1
1329	-1e-05	-2e-05	-2e-05	-1e-05	-1e-05	-2e-05	-3e-05	-6e-05	1
1330	-1e-05	-2e-05	-2e-05	-1e-05	-1e-05	-2e-05	-3e-05	-6e-05	1
1331	-1e-05	-2e-05	-2e-05	-1e-05	-1e-05	-2e-05	-3e-05	-6e-05	1
1332	-1e-05	-2e-05	-2e-05	-1e-05	-1e-05	-2e-05	-3e-05	-6e-05	1
1333	-1e-05	-2e-05	-2e-05	-1e-05	-1e-05	-2e-05	-3e-05	-6e-05	1
1334	-1e-05	-2e-05	-2e-05	-1e-05	-1e-05	-2e-05	-3e-05	-6e-05	1
1335	-1e-05	-4e-05	-4e-05	-1e-05	-1e-05	-4e-05	-4e-05	0	1
1336	-1e-05	-4e-05	-4e-05	-1e-05	-1e-05	-4e-05	-4e-05	0	1
1337	-1e-05	-4e-05	-4e-05	-1e-05	-1e-05	-4e-05	-4e-05	0	1
1338	-1e-05	-4e-05	-4e-05	-1e-05	-1e-05	-4e-05	-4e-05	0	1
1339	-1e-05	-4e-05	-4e-05	-1e-05	-1e-05	-4e-05	-4e-05	0	1
1340	-1e-05	-4e-05	-4e-05	-1e-05	-1e-05	-4e-05	-4e-05	0	1
1341	-1e-05	-4e-05	-4e-05	-1e-05	-1e-05	-4e-05	-4e-05	0	1
1342	-1e-05	-4e-05	-2e-05	-1e-05	0	-3e-05	-5e-05	-6e-05	1
1343	-1e-05	-4e-05	-2e-05	-1e-05	0	-3e-05	-5e-05	-6e-05	1
1344	-1e-05	-4e-05	-2e-05	-1e-05	0	-3e-05	-5e-05	-6e-05	1
1345	-1e-05	-4e-05	-2e-05	-1e-05	0	-3e-05	-5e-05	-6e-05	1
1347	-1e-05	-4e-05	-2e-05	-1e-05	0	-3e-05	-5e-05	-6e-05	1
1348	-1e-05	-4e-05	-2e-05	-1e-05	0	-3e-05	-5e-05	-6e-05	1
1349	-1e-05	-4e-05	-2e-05	-1e-05	0	-3e-05	-5e-05	-6e-05	1
1350	-1e-05	-4e-05	-2e-05	-1e-05	0	-3e-05	-5e-05	-6e-05	1
1351	-1e-05	-4e-05	-2e-05	-1e-05	0	-3e-05	-5e-05	-6e-05	1
1352	-1e-05	-4e-05	-2e-05	-1e-05	0	-3e-05	-5e-05	-6e-05	1
1353	-1e-05	-4e-05	-2e-05	-1e-05	0	-3e-05	-5e-05	-6e-05	1
1354	-1e-05	-4e-05	-2e-05	-1e-05	0	-3e-05	-5e-05	-6e-05	1
1355	-1e-05	-4e-05	-2e-05	-1e-05	0	-3e-05	-5e-05	-6e-05	1
1356	-1e-05	-4e-05	-2e-05	-1e-05	0	-3e-05	-5e-05	-6e-05	1
1357	-1e-05	-4e-05	-2e-05	-1e-05	0	-3e-05	-5e-05	-6e-05	1
1358	-1e-05	-2e-05	1e-05	1e-05	-1e-05	-1e-05	-5e-05	-6e-05	1
1359	-1e-05	-2e-05	1e-05	1e-05	-1e-05	-1e-05	-5e-05	-6e-05	1
1360	-1e-05	0	-1e-05	-2e-05	-1e-05	-2e-05	-3e-05	-4e-05	1
1361	-1e-05	0	-1e-05	-2e-05	-1e-05	-2e-05	-3e-05	-4e-05	1
1362	-1e-05	0	-1e-05	-2e-05	-1e-05	-2e-05	-3e-05	-4e-05	1
1363	-1e-05	0	-1e-05	-2e-05	-1e-05	-2e-05	-3e-05	-4e-05	1
1364	-1e-05	0	-1e-05	-2e-05	-1e-05	-2e-05	-3e-05	-4e-05	1
1365	-1e-05	0	-1e-05	-2e-05	-1e-05	-2e-05	-3e-05	-4e-05	1
1366	-1e-05	0	-1e-05	-2e-05	-1e-05	-2e-05	-3e-05	-4e-05	1
1367	-1e-05	0	-1e-05	-2e-05	-1e-05	-2e-05	-3e-05	-4e-05	1
1368	-1e-05	0	-1e-05	-2e-05	-1e-05	-2e-05	-3e-05	-4e-05	1
1369	-1e-05	0	-1e-05	-2e-05	-1e-05	-2e-05	-3e-05	-4e-05	1
1370	-1e-05	0	-1e-05	-2e-05	-1e-05	-2e-05	-3e-05	-4e-05	1
1371	-1e-05	0	-1e-05	-2e-05	-1e-05	-2e-05	-3e-05	-4e-05	1
1372	-1e-05	0	-1e-05	-2e-05	-1e-05	-2e-05	-3e-05	-4e-05	1
1373	-1e-05	0	-1e-05	-2e-05	-1e-05	-2e-05	-3e-05	-4e-05	1
1374	-1e-05	0	-1e-05	-2e-05	-1e-05	-2e-05	-3e-05	-4e-05	1
1375	-1e-05	0	-1e-05	-2e-05	-1e-05	-2e-05	-3e-05	-4e-05	1
1376	-1e-05	0	-1e-05	-2e-05	-1e-05	-2e-05	-3e-05	-4e-05	1
1377	-1e-05	0	-1e-05	-2e-05	-1e-05	-2e-05	-3e-05	-4e-05	1
1378	-1e-05	0	-1e-05	-2e-05	-1e-05	-2e-05	-3e-05	-4e-05	1
1379	-1e-05	0	-1e-05	-2e-05	-1e-05	-2e-05	-3e-05	-4e-05	1
1380	0	3e-05	1e-05	0	-1e-05	-2e-05	0	-7e-05	1
1381	0	3e-05	1e-05	0	-1e-05	-2e-05	0	-7e-05	1
1382	0	-3e-05	-4e-05	-4e-05	0	-1e-05	-3e-05	2e-05	1
1383	0	-3e-05	-4e-05	-4e-05	0	-1e-05	-3e-05	2e-05	1
1384	0	-3e-05	-4e-05	-4e-05	0	-1e-05	-3e-05	2e-05	1
1385	0	-3e-05	-4e-05	-4e-05	0	-1e-05	-3e-05	2e-05	1
1386	0	-3e-05	-4e-05	-4e-05	0	-1e-05	-3e-05	2e-05	1
1387	0	-3e-05	-4e-05	-4e-05	0	-1e-05	-3e-05	2e-05	1
1388	0	-3e-05	-4e-05	-4e-05	0	-1e-05	-3e-05	2e-05	1
1389	0	-3e-05	-4e-05	-4e-05	0	-1e-05	-3e-05	2e-05	1
1390	0	-3e-05	-4e-05	-4e-05	0	-1e-05	-3e-05	2e-05	1
1392	0	-3e-05	-4e-05	-4e-05	0	-1e-05	-3e-05	2e-05	1
1393	0	-3e-05	-4e-05	-4e-05	0	-1e-05	-3e-05	2e-05	1
1394	1e-05	-2e-05	-1e-05	1e-05	-1e-05	0	4e-05	2e-05	1
1395	1e-05	-2e-05	-1e-05	1e-05	-1e-05	0	4e-05	2e-05	1
1397	1e-05	-2e-05	-1e-05	1e-05	-1e-05	0	4e-05	2e-05	1
1398	1e-05	-2e-05	-1e-05	1e-05	-1e-05	0	4e-05	2e-05	1
1399	1e-05	-2e-05	-1e-05	1e-05	-1e-05	0	4e-05	2e-05	1
1400	1e-05	-2e-05	-1e-05	1e-05	-1e-05	0	4e-05	2e-05	1
1401	1e-05	-2e-05	-1e-05	1e-05	-1e-05	0	4e-05	2e-05	1
1402	1e-05	-2e-05	-1e-05	1e-05	-1e-05	0	4e-05	2e-05	1
1403	-3e-05	1e-05	1e-05	-2e-05	-2e-05	1e-05	0	-1e-05	1
1404	-3e-05	1e-05	1e-05	-2e-05	-2e-05	1e-05	0	-1e-05	1
1405	-3e-05	1e-05	1e-05	-2e-05	-2e-05	1e-05	0	-1e-05	1
1406	-3e-05	1e-05	1e-05	-2e-05	-2e-05	1e-05	0	-1e-05	1
1407	-3e-05	1e-05	1e-05	-2e-05	-2e-05	1e-05	0	-1e-05	1
1408	-3e-05	1e-05	1e-05	-2e-05	-2e-05	1e-05	0	-1e-05	1
1409	-3e-05	1e-05	1e-05	-2e-05	-2e-05	1e-05	0	-1e-05	1
1410	-3e-05	1e-05	1e-05	-2e-05	-2e-05	1e-05	0	-1e-05	1
1411	-3e-05	1e-05	1e-05	-2e-05	-2e-05	1e-05	0	-1e-05	1
1412	-3e-05	1e-05	1e-05	-2e-05	-2e-05	1e-05	0	-1e-05	1
1413	-3e-05	1e-05	1e-05	-2e-05	-2e-05	1e-05	0	-1e-05	1
1414	-3e-05	1e-05	1e-05	-2e-05	-2e-05	1e-05	0	-1e-05	1
1415	-3e-05	1e-05	1e-05	-2e-05	-2e-05	1e-05	0	-1e-05	1
1416	-3e-05	1e-05	1e-05	-2e-05	-2e-05	1e-05	0	-1e-05	1
1417	-3e-05	1e-05	1e-05	-2e-05	-2e-05	1e-05	0	-1e-05	1
1418	-3e-05	-1e-05	-2e-05	-1e-05	-2e-05	-4e-05	-3e-05	-4e-05	1
1419	-3e-05	-1e-05	-2e-05	-1e-05	-2e-05	-4e-05	-3e-05	-4e-05	1
1420	-2e-05	1e-05	0	0	0	-1e-05	-2e-05	3e-05	1
1421	-2e-05	1e-05	0	0	0	-1e-05	-2e-05	3e-05	1
1422	-2e-05	1e-05	0	0	0	-1e-05	-2e-05	3e-05	1
1423	-2e-05	1e-05	0	0	0	-1e-05	-2e-05	3e-05	1
1424	-2e-05	1e-05	0	0	0	-1e-05	-2e-05	3e-05	1
1425	-2e-05	1e-05	0	0	0	-1e-05	-2e-05	3e-05	1
1426	-2e-05	1e-05	0	0	0	-1e-05	-2e-05	3e-05	1
1427	-2e-05	1e-05	0	0	0	-1e-05	-2e-05	3e-05	1
1428	-2e-05	1e-05	0	0	0	-1e-05	-2e-05	3e-05	1
1429	-2e-05	1e-05	0	0	0	-1e-05	-2e-05	3e-05	1
1430	-2e-05	1e-05	0	0	0	-1e-05	-2e-05	3e-05	1
1431	-2e-05	1e-05	0	0	0	-1e-05	-2e-05	3e-05	1
1432	-2e-05	1e-05	0	0	0	-1e-05	-2e-05	3e-05	1
1433	-2e-05	1e-05	0	0	0	-1e-05	-2e-05	3e-05	1
1434	-2e-05	1e-05	0	0	0	-1e-05	-2e-05	3e-05	1
1435	-2e-05	1e-05	0	0	0	-1e-05	-2e-05	3e-05	1
1437	-2e-05	1e-05	0	0	0	-1e-05	-2e-05	3e-05	1
1439	-2e-05	1e-05	0	0	0	-1e-05	-2e-05	3e-05	1
1440	-2e-05	1e-05	0	0	0	-1e-05	-2e-05	3e-05	1
1441	-1e-05	-1e-05	-1e-05	-2e-05	0	0	0	0	1
1442	-3e-05	-1e-05	0	-1e-05	-2e-05	-3e-05	-4e-05	0.00011	1
1443	-3e-05	-1e-05	0	-1e-05	-2e-05	-3e-05	-4e-05	0.00011	1
1444	-3e-05	-1e-05	0	-1e-05	-2e-05	-3e-05	-4e-05	0.00011	1
1445	-3e-05	-1e-05	0	-1e-05	-2e-05	-3e-05	-4e-05	0.00011	1
1447	-3e-05	-1e-05	0	-1e-05	-2e-05	-3e-05	-4e-05	0.00011	1
1448	-3e-05	-1e-05	0	-1e-05	-2e-05	-3e-05	-4e-05	0.00011	1
1449	-3e-05	-1e-05	0	-1e-05	-2e-05	-3e-05	-4e-05	0.00011	1
1450	-3e-05	-1e-05	0	-1e-05	-2e-05	-3e-05	-4e-05	0.00011	1
1451	-3e-05	-1e-05	0	-1e-05	-2e-05	-3e-05	-4e-05	0.00011	1
1452	-3e-05	-1e-05	0	-1e-05	-2e-05	-3e-05	-4e-05	0.00011	1
1453	-3e-05	-1e-05	0	-1e-05	-2e-05	-3e-05	-4e-05	0.00011	1
1454	-4e-05	-2e-05	-2e-05	-1e-05	-1e-05	-2e-05	-4e-05	-1e-05	1
1455	-4e-05	-2e-05	-2e-05	-1e-05	-1e-05	-2e-05	-4e-05	-1e-05	1
1456	-4e-05	-2e-05	-2e-05	-1e-05	-1e-05	-2e-05	-4e-05	-1e-05	1
1457	-4e-05	-2e-05	-2e-05	-1e-05	-1e-05	-2e-05	-4e-05	-1e-05	1
1458	-4e-05	-2e-05	-2e-05	-1e-05	-1e-05	-2e-05	-4e-05	-1e-05	1
1459	-4e-05	-2e-05	-2e-05	-1e-05	-1e-05	-2e-05	-4e-05	-1e-05	1
1460	-4e-05	-2e-05	-2e-05	-1e-05	-1e-05	-2e-05	-4e-05	-1e-05	1
1461	-4e-05	-2e-05	-2e-05	-1e-05	-1e-05	-2e-05	-4e-05	-1e-05	1
1462	-4e-05	-2e-05	-2e-05	-1e-05	-1e-05	-2e-05	-4e-05	-1e-05	1
1463	0	-2e-05	0	-1e-05	-1e-05	-2e-05	-4e-05	-0.00012	1
1464	0	-2e-05	0	-1e-05	-1e-05	-2e-05	-4e-05	-0.00012	1
1465	0	-2e-05	0	-1e-05	-1e-05	-2e-05	-4e-05	-0.00012	1
1466	0	-2e-05	0	-1e-05	-1e-05	-2e-05	-4e-05	-0.00012	1
1467	0	-2e-05	0	-1e-05	-1e-05	-2e-05	-4e-05	-0.00012	1
1468	0	-2e-05	0	-1e-05	-1e-05	-2e-05	-4e-05	-0.00012	1
1469	0	-2e-05	0	-1e-05	-1e-05	-2e-05	-4e-05	-0.00012	1
1470	0	-2e-05	0	-1e-05	-1e-05	-2e-05	-4e-05	-0.00012	1
1471	0	-2e-05	0	-1e-05	-1e-05	-2e-05	-4e-05	-0.00012	1
1472	0	-2e-05	0	-1e-05	-1e-05	-2e-05	-4e-05	-0.00012	1
1473	0	-2e-05	0	-1e-05	-1e-05	-2e-05	-4e-05	-0.00012	1
1474	0	-2e-05	0	-1e-05	-1e-05	-2e-05	-4e-05	-0.00012	1
1475	0	-2e-05	0	-1e-05	-1e-05	-2e-05	-4e-05	-0.00012	1
1476	0	-2e-05	0	-1e-05	-1e-05	-2e-05	-4e-05	-0.00012	1
1477	0	-2e-05	0	-1e-05	-1e-05	-2e-05	-4e-05	-0.00012	1
1478	-1e-05	-2e-05	-2e-05	-1e-05	-2e-05	1e-05	2e-05	5e-05	1
1479	-1e-05	1e-05	-1e-05	0	-1e-05	0	-3e-05	-2e-05	1
1480	0	-3e-05	-1e-05	1e-05	0	-2e-05	3e-05	1e-05	1
1481	0	-3e-05	-1e-05	1e-05	0	-2e-05	3e-05	1e-05	1
1482	0	-3e-05	-1e-05	1e-05	0	-2e-05	3e-05	1e-05	1
1483	0	-3e-05	-1e-05	1e-05	0	-2e-05	3e-05	1e-05	1
1485	0	-3e-05	-1e-05	1e-05	0	-2e-05	3e-05	1e-05	1
1486	0	-3e-05	-1e-05	1e-05	0	-2e-05	3e-05	1e-05	1
1487	0	-3e-05	-1e-05	1e-05	0	-2e-05	3e-05	1e-05	1
1488	0	-3e-05	-1e-05	1e-05	0	-2e-05	3e-05	1e-05	1
1489	0	-3e-05	-1e-05	1e-05	0	-2e-05	3e-05	1e-05	1
1490	0	-3e-05	-1e-05	1e-05	0	-2e-05	3e-05	1e-05	1
1491	0	-3e-05	-1e-05	1e-05	0	-2e-05	3e-05	1e-05	1
1492	0	-3e-05	-1e-05	1e-05	0	-2e-05	3e-05	1e-05	1
1493	0	-3e-05	-1e-05	1e-05	0	-2e-05	3e-05	1e-05	1
1494	0	-3e-05	-1e-05	1e-05	0	-2e-05	3e-05	1e-05	1
1495	0	-3e-05	-1e-05	1e-05	0	-2e-05	3e-05	1e-05	1
1497	0	-3e-05	-1e-05	1e-05	0	-2e-05	3e-05	1e-05	1
1498	0	-3e-05	-1e-05	1e-05	0	-2e-05	3e-05	1e-05	1
1499	0	-3e-05	-1e-05	1e-05	0	-2e-05	3e-05	1e-05	1
1500	0	-3e-05	-1e-05	1e-05	0	-2e-05	3e-05	1e-05	1
1501	1e-05	1e-05	3e-05	-1e-05	0	0	-7e-05	-6e-05	1
1502	0	3e-05	-3e-05	0	2e-05	0	-2e-05	1e-05	1
1503	0	3e-05	-3e-05	0	2e-05	0	-2e-05	1e-05	1
1504	0	3e-05	-3e-05	0	2e-05	0	-2e-05	1e-05	1
1505	0	3e-05	-3e-05	0	2e-05	0	-2e-05	1e-05	1
1506	0	3e-05	-3e-05	0	2e-05	0	-2e-05	1e-05	1
1507	0	3e-05	-3e-05	0	2e-05	0	-2e-05	1e-05	1
1508	0	3e-05	-3e-05	0	2e-05	0	-2e-05	1e-05	1
1509	0	3e-05	-3e-05	0	2e-05	0	-2e-05	1e-05	1
1510	0	3e-05	-3e-05	0	2e-05	0	-2e-05	1e-05	1
1511	0	3e-05	-3e-05	0	2e-05	0	-2e-05	1e-05	1
1512	0	3e-05	-3e-05	0	2e-05	0	-2e-05	1e-05	1
1513	0	3e-05	-3e-05	0	2e-05	0	-2e-05	1e-05	1
1514	-1e-05	-4e-05	-2e-05	-1e-05	0	-2e-05	-6e-05	-5e-05	1
1515	-1e-05	-4e-05	-2e-05	-1e-05	0	-2e-05	-6e-05	-5e-05	1
1516	-1e-05	-4e-05	-2e-05	-1e-05	0	-2e-05	-6e-05	-5e-05	1
1517	-1e-05	-4e-05	-2e-05	-1e-05	0	-2e-05	-6e-05	-5e-05	1
1518	-1e-05	-4e-05	-2e-05	-1e-05	0	-2e-05	-6e-05	-5e-05	1
1519	-1e-05	-4e-05	-2e-05	-1e-05	0	-2e-05	-6e-05	-5e-05	1
1520	-1e-05	-4e-05	-2e-05	-1e-05	0	-2e-05	-6e-05	-5e-05	1
1521	-1e-05	-4e-05	-2e-05	-1e-05	0	-2e-05	-6e-05	-5e-05	1
1522	-1e-05	-4e-05	-2e-05	-1e-05	0	-2e-05	-6e-05	-5e-05	1
1523	0	1e-05	-1e-05	-2e-05	-2e-05	-2e-05	0	-9e-05	1
1524	0	1e-05	-1e-05	-2e-05	-2e-05	-2e-05	0	-9e-05	1
1525	0	1e-05	-1e-05	-2e-05	-2e-05	-2e-05	0	-9e-05	1
1526	0	1e-05	-1e-05	-2e-05	-2e-05	-2e-05	0	-9e-05	1
1527	0	1e-05	-1e-05	-2e-05	-2e-05	-2e-05	0	-9e-05	1
1528	0	1e-05	-1e-05	-2e-05	-2e-05	-2e-05	0	-9e-05	1
1529	0	1e-05	-1e-05	-2e-05	-2e-05	-2e-05	0	-9e-05	1
1530	0	1e-05	-1e-05	-2e-05	-2e-05	-2e-05	0	-9e-05	1
1531	0	1e-05	-1e-05	-2e-05	-2e-05	-2e-05	0	-9e-05	1
1532	0	1e-05	-1e-05	-2e-05	-2e-05	-2e-05	0	-9e-05	1
1533	0	1e-05	-1e-05	-2e-05	-2e-05	-2e-05	0	-9e-05	1
1534	0	1e-05	-1e-05	-2e-05	-2e-05	-2e-05	0	-9e-05	1
1535	0	1e-05	-1e-05	-2e-05	-2e-05	-2e-05	0	-9e-05	1
1536	0	1e-05	-1e-05	-2e-05	-2e-05	-2e-05	0	-9e-05	1
1537	0	1e-05	-1e-05	-2e-05	-2e-05	-2e-05	0	-9e-05	1
1538	-1e-05	1e-05	-1e-05	-1e-05	-2e-05	-1e-05	1e-05	1e-05	1
1539	1e-05	2e-05	2e-05	1e-05	1e-05	0	3e-05	0.00012	1
1540	1e-05	2e-05	2e-05	1e-05	1e-05	0	3e-05	0.00012	1
1541	1e-05	2e-05	2e-05	1e-05	1e-05	0	3e-05	0.00012	1
1542	1e-05	2e-05	2e-05	1e-05	1e-05	0	3e-05	0.00012	1
1543	1e-05	2e-05	2e-05	1e-05	1e-05	0	3e-05	0.00012	1
1544	1e-05	2e-05	2e-05	1e-05	1e-05	0	3e-05	0.00012	1
1545	1e-05	2e-05	2e-05	1e-05	1e-05	0	3e-05	0.00012	1
1547	1e-05	2e-05	2e-05	1e-05	1e-05	0	3e-05	0.00012	1
1548	1e-05	2e-05	2e-05	1e-05	1e-05	0	3e-05	0.00012	1
1549	1e-05	2e-05	2e-05	1e-05	1e-05	0	3e-05	0.00012	1
1550	1e-05	2e-05	2e-05	1e-05	1e-05	0	3e-05	0.00012	1
1551	1e-05	2e-05	2e-05	1e-05	1e-05	0	3e-05	0.00012	1
1552	1e-05	2e-05	2e-05	1e-05	1e-05	0	3e-05	0.00012	1
1553	1e-05	2e-05	2e-05	1e-05	1e-05	0	3e-05	0.00012	1
1554	1e-05	2e-05	2e-05	1e-05	1e-05	0	3e-05	0.00012	1
1555	1e-05	2e-05	2e-05	1e-05	1e-05	0	3e-05	0.00012	1
1556	1e-05	2e-05	2e-05	1e-05	1e-05	0	3e-05	0.00012	1
1557	1e-05	2e-05	2e-05	1e-05	1e-05	0	3e-05	0.00012	1
1558	1e-05	2e-05	2e-05	1e-05	1e-05	0	3e-05	0.00012	1
1559	1e-05	2e-05	2e-05	1e-05	1e-05	0	3e-05	0.00012	1
1560	1e-05	2e-05	2e-05	1e-05	1e-05	0	3e-05	0.00012	1
1561	-1e-05	-1e-05	-3e-05	-2e-05	-4e-05	0	0	0	1
1562	-3e-05	-3e-05	-2e-05	-3e-05	-3e-05	0	0	-1e-05	1
1563	-3e-05	-3e-05	-2e-05	-3e-05	-3e-05	0	0	-1e-05	1
1564	-3e-05	-3e-05	-2e-05	-3e-05	-3e-05	0	0	-1e-05	1
1565	-3e-05	-3e-05	-2e-05	-3e-05	-3e-05	0	0	-1e-05	1
1566	-3e-05	-3e-05	-2e-05	-3e-05	-3e-05	0	0	-1e-05	1
1567	-3e-05	-3e-05	-2e-05	-3e-05	-3e-05	0	0	-1e-05	1
1568	-3e-05	-3e-05	-2e-05	-3e-05	-3e-05	0	0	-1e-05	1
1569	-3e-05	-3e-05	-2e-05	-3e-05	-3e-05	0	0	-1e-05	1
1570	-3e-05	-3e-05	-2e-05	-3e-05	-3e-05	0	0	-1e-05	1
1571	-3e-05	-3e-05	-2e-05	-3e-05	-3e-05	0	0	-1e-05	1
1572	-3e-05	-3e-05	-2e-05	-3e-05	-3e-05	0	0	-1e-05	1
1573	-3e-05	-3e-05	-2e-05	-3e-05	-3e-05	0	0	-1e-05	1
1574	-1e-05	3e-05	2e-05	1e-05	1e-05	-3e-05	0	2e-05	1
1575	-1e-05	3e-05	2e-05	1e-05	1e-05	-3e-05	0	2e-05	1
1576	-1e-05	3e-05	2e-05	1e-05	1e-05	-3e-05	0	2e-05	1
1578	-1e-05	3e-05	2e-05	1e-05	1e-05	-3e-05	0	2e-05	1
1579	-1e-05	3e-05	2e-05	1e-05	1e-05	-3e-05	0	2e-05	1
1580	-1e-05	3e-05	2e-05	1e-05	1e-05	-3e-05	0	2e-05	1
1581	-1e-05	3e-05	2e-05	1e-05	1e-05	-3e-05	0	2e-05	1
1582	-1e-05	3e-05	2e-05	1e-05	1e-05	-3e-05	0	2e-05	1
1583	-2e-05	-1e-05	-2e-05	0	-2e-05	0	-2e-05	7e-05	1
1584	-2e-05	-1e-05	-2e-05	0	-2e-05	0	-2e-05	7e-05	1
1585	-2e-05	-1e-05	-2e-05	0	-2e-05	0	-2e-05	7e-05	1
1586	-2e-05	-1e-05	-2e-05	0	-2e-05	0	-2e-05	7e-05	1
1587	-2e-05	-1e-05	-2e-05	0	-2e-05	0	-2e-05	7e-05	1
1588	-2e-05	-1e-05	-2e-05	0	-2e-05	0	-2e-05	7e-05	1
1589	-2e-05	-1e-05	-2e-05	0	-2e-05	0	-2e-05	7e-05	1
1590	-2e-05	-1e-05	-2e-05	0	-2e-05	0	-2e-05	7e-05	1
1591	-2e-05	-1e-05	-2e-05	0	-2e-05	0	-2e-05	7e-05	1
1592	-2e-05	-1e-05	-2e-05	0	-2e-05	0	-2e-05	7e-05	1
1593	-2e-05	-1e-05	-2e-05	0	-2e-05	0	-2e-05	7e-05	1
1594	-2e-05	-1e-05	-2e-05	0	-2e-05	0	-2e-05	7e-05	1
1595	-2e-05	-1e-05	-2e-05	0	-2e-05	0	-2e-05	7e-05	1
1596	-2e-05	-1e-05	-2e-05	0	-2e-05	0	-2e-05	7e-05	1
1597	-2e-05	-1e-05	-2e-05	0	-2e-05	0	-2e-05	7e-05	1
1598	2e-05	-2e-05	0	-2e-05	0	0	1e-05	-2e-05	1
1599	-3e-05	-1e-05	-3e-05	-1e-05	0	-3e-05	3e-05	-0.00012	1
1600	-3e-05	-1e-05	-3e-05	-1e-05	0	-3e-05	3e-05	-0.00012	1
1601	-3e-05	-1e-05	-3e-05	-1e-05	0	-3e-05	3e-05	-0.00012	1
1602	-3e-05	-1e-05	-3e-05	-1e-05	0	-3e-05	3e-05	-0.00012	1
1603	-3e-05	-1e-05	-3e-05	-1e-05	0	-3e-05	3e-05	-0.00012	1
1604	-3e-05	-1e-05	-3e-05	-1e-05	0	-3e-05	3e-05	-0.00012	1
1605	-3e-05	-1e-05	-3e-05	-1e-05	0	-3e-05	3e-05	-0.00012	1
1606	-3e-05	-1e-05	-3e-05	-1e-05	0	-3e-05	3e-05	-0.00012	1
1607	-3e-05	-1e-05	-3e-05	-1e-05	0	-3e-05	3e-05	-0.00012	1
1608	-3e-05	-1e-05	-3e-05	-1e-05	0	-3e-05	3e-05	-0.00012	1
1609	-3e-05	-1e-05	-3e-05	-1e-05	0	-3e-05	3e-05	-0.00012	1
1610	-3e-05	-1e-05	-3e-05	-1e-05	0	-3e-05	3e-05	-0.00012	1
1611	-3e-05	-1e-05	-3e-05	-1e-05	0	-3e-05	3e-05	-0.00012	1
1612	-3e-05	-1e-05	-3e-05	-1e-05	0	-3e-05	3e-05	-0.00012	1
1613	-3e-05	-1e-05	-3e-05	-1e-05	0	-3e-05	3e-05	-0.00012	1
1614	-3e-05	-1e-05	-3e-05	-1e-05	0	-3e-05	3e-05	-0.00012	1
1615	-3e-05	-1e-05	-3e-05	-1e-05	0	-3e-05	3e-05	-0.00012	1
1616	-3e-05	-1e-05	-3e-05	-1e-05	0	-3e-05	3e-05	-0.00012	1
1617	-3e-05	-1e-05	-3e-05	-1e-05	0	-3e-05	3e-05	-0.00012	1
1618	-3e-05	-1e-05	-3e-05	-1e-05	0	-3e-05	3e-05	-0.00012	1
1619	-3e-05	-1e-05	-3e-05	-1e-05	0	-3e-05	3e-05	-0.00012	1
1620	-2e-05	-1e-05	-1e-05	-1e-05	0	-3e-05	-3e-05	0	1
1621	-2e-05	-1e-05	-1e-05	-1e-05	0	-3e-05	-3e-05	0	1
1622	-2e-05	-7e-05	-2e-05	-2e-05	-5e-05	1e-05	-3e-05	-2e-05	1
1623	-2e-05	-7e-05	-2e-05	-2e-05	-5e-05	1e-05	-3e-05	-2e-05	1
1625	-2e-05	-7e-05	-2e-05	-2e-05	-5e-05	1e-05	-3e-05	-2e-05	1
1626	-2e-05	-7e-05	-2e-05	-2e-05	-5e-05	1e-05	-3e-05	-2e-05	1
1627	-2e-05	-7e-05	-2e-05	-2e-05	-5e-05	1e-05	-3e-05	-2e-05	1
1628	-2e-05	-7e-05	-2e-05	-2e-05	-5e-05	1e-05	-3e-05	-2e-05	1
1629	-2e-05	-7e-05	-2e-05	-2e-05	-5e-05	1e-05	-3e-05	-2e-05	1
1630	-2e-05	-7e-05	-2e-05	-2e-05	-5e-05	1e-05	-3e-05	-2e-05	1
1631	-2e-05	-7e-05	-2e-05	-2e-05	-5e-05	1e-05	-3e-05	-2e-05	1
1632	-2e-05	-7e-05	-2e-05	-2e-05	-5e-05	1e-05	-3e-05	-2e-05	1
1633	-2e-05	-7e-05	-2e-05	-2e-05	-5e-05	1e-05	-3e-05	-2e-05	1
1634	-2e-05	-7e-05	-2e-05	-2e-05	-5e-05	1e-05	-3e-05	-2e-05	1
1635	-2e-05	-7e-05	-2e-05	-2e-05	-5e-05	1e-05	-3e-05	-2e-05	1
1636	-2e-05	-7e-05	-2e-05	-2e-05	-5e-05	1e-05	-3e-05	-2e-05	1
1637	-2e-05	-7e-05	-2e-05	-2e-05	-5e-05	1e-05	-3e-05	-2e-05	1
1638	-2e-05	-7e-05	-2e-05	-2e-05	-5e-05	1e-05	-3e-05	-2e-05	1
1639	-2e-05	-7e-05	-2e-05	-2e-05	-5e-05	1e-05	-3e-05	-2e-05	1
1640	-2e-05	-7e-05	-2e-05	-2e-05	-5e-05	1e-05	-3e-05	-2e-05	1
1641	-2e-05	-7e-05	-2e-05	-2e-05	-5e-05	1e-05	-3e-05	-2e-05	1
1642	-2e-05	0	-4e-05	-3e-05	-2e-05	2e-05	0	-5e-05	1
1643	1e-05	1e-05	0	0	0	-2e-05	-4e-05	2e-05	1
1644	1e-05	1e-05	0	0	0	-2e-05	-4e-05	2e-05	1
1645	1e-05	1e-05	0	0	0	-2e-05	-4e-05	2e-05	1
1646	1e-05	1e-05	0	0	0	-2e-05	-4e-05	2e-05	1
1647	1e-05	1e-05	0	0	0	-2e-05	-4e-05	2e-05	1
1648	1e-05	1e-05	0	0	0	-2e-05	-4e-05	2e-05	1
1649	1e-05	1e-05	0	0	0	-2e-05	-4e-05	2e-05	1
1650	1e-05	1e-05	0	0	0	-2e-05	-4e-05	2e-05	1
1651	1e-05	1e-05	0	0	0	-2e-05	-4e-05	2e-05	1
1652	1e-05	1e-05	0	0	0	-2e-05	-4e-05	2e-05	1
1653	1e-05	1e-05	0	0	0	-2e-05	-4e-05	2e-05	1
1654	1e-05	1e-05	0	0	0	-2e-05	-4e-05	2e-05	1
1655	1e-05	1e-05	0	0	0	-2e-05	-4e-05	2e-05	1
1656	1e-05	1e-05	0	0	0	-2e-05	-4e-05	2e-05	1
1657	-2e-05	-1e-05	-1e-05	-1e-05	-2e-05	-1e-05	-1e-05	3e-05	1
1658	-4e-05	0	-2e-05	-2e-05	-1e-05	-1e-05	-3e-05	1e-05	1
1659	-4e-05	0	-2e-05	-2e-05	-1e-05	-1e-05	-3e-05	1e-05	1
1660	-4e-05	0	-2e-05	-2e-05	-1e-05	-1e-05	-3e-05	1e-05	1
1661	-4e-05	0	-2e-05	-2e-05	-1e-05	-1e-05	-3e-05	1e-05	1
1662	-4e-05	0	-2e-05	-2e-05	-1e-05	-1e-05	-3e-05	1e-05	1
1663	-4e-05	0	-2e-05	-2e-05	-1e-05	-1e-05	-3e-05	1e-05	1
1664	-4e-05	0	-2e-05	-2e-05	-1e-05	-1e-05	-3e-05	1e-05	1
1665	-4e-05	0	-2e-05	-2e-05	-1e-05	-1e-05	-3e-05	1e-05	1
1666	-4e-05	0	-2e-05	-2e-05	-1e-05	-1e-05	-3e-05	1e-05	1
1667	-4e-05	0	-2e-05	-2e-05	-1e-05	-1e-05	-3e-05	1e-05	1
1668	-4e-05	0	-2e-05	-2e-05	-1e-05	-1e-05	-3e-05	1e-05	1
1669	-4e-05	0	-2e-05	-2e-05	-1e-05	-1e-05	-3e-05	1e-05	1
1671	-4e-05	0	-2e-05	-2e-05	-1e-05	-1e-05	-3e-05	1e-05	1
1672	-4e-05	0	-2e-05	-2e-05	-1e-05	-1e-05	-3e-05	1e-05	1
1673	-4e-05	0	-2e-05	-2e-05	-1e-05	-1e-05	-3e-05	1e-05	1
1674	-4e-05	0	-2e-05	-2e-05	-1e-05	-1e-05	-3e-05	1e-05	1
1675	-4e-05	0	-2e-05	-2e-05	-1e-05	-1e-05	-3e-05	1e-05	1
1676	-4e-05	0	-2e-05	-2e-05	-1e-05	-1e-05	-3e-05	1e-05	1
1677	-4e-05	0	-2e-05	-2e-05	-1e-05	-1e-05	-3e-05	1e-05	1
1678	-4e-05	0	-2e-05	-2e-05	-1e-05	-1e-05	-3e-05	1e-05	1
1679	-4e-05	0	-2e-05	-2e-05	-1e-05	-1e-05	-3e-05	1e-05	1
1680	2e-05	2e-05	1e-05	0	-1e-05	-2e-05	-0.0001	-0.0001	1
1681	2e-05	2e-05	1e-05	0	-1e-05	-2e-05	-0.0001	-0.0001	1
1682	2e-05	2e-05	1e-05	0	-1e-05	-2e-05	-0.0001	-0.0001	1
1683	2e-05	2e-05	1e-05	0	-1e-05	-2e-05	-0.0001	-0.0001	1
1684	2e-05	2e-05	1e-05	0	-1e-05	-2e-05	-0.0001	-0.0001	1
1685	2e-05	2e-05	1e-05	0	-1e-05	-2e-05	-0.0001	-0.0001	1
1686	2e-05	2e-05	1e-05	0	-1e-05	-2e-05	-0.0001	-0.0001	1
1687	2e-05	2e-05	1e-05	0	-1e-05	-2e-05	-0.0001	-0.0001	1
1688	2e-05	2e-05	1e-05	0	-1e-05	-2e-05	-0.0001	-0.0001	1
1689	2e-05	2e-05	1e-05	0	-1e-05	-2e-05	-0.0001	-0.0001	1
1690	2e-05	2e-05	1e-05	0	-1e-05	-2e-05	-0.0001	-0.0001	1
1691	2e-05	2e-05	1e-05	0	-1e-05	-2e-05	-0.0001	-0.0001	1
1692	2e-05	2e-05	1e-05	0	-1e-05	-2e-05	-0.0001	-0.0001	1
1693	2e-05	2e-05	1e-05	0	-1e-05	-2e-05	-0.0001	-0.0001	1
1694	2e-05	2e-05	1e-05	0	-1e-05	-2e-05	-0.0001	-0.0001	1
1695	2e-05	2e-05	1e-05	0	-1e-05	-2e-05	-0.0001	-0.0001	1
1696	2e-05	2e-05	1e-05	0	-1e-05	-2e-05	-0.0001	-0.0001	1
1697	2e-05	2e-05	1e-05	0	-1e-05	-2e-05	-0.0001	-0.0001	1
1698	2e-05	2e-05	1e-05	0	-1e-05	-2e-05	-0.0001	-0.0001	1
1699	2e-05	2e-05	1e-05	0	-1e-05	-2e-05	-0.0001	-0.0001	1
1700	2e-05	2e-05	1e-05	0	-1e-05	-2e-05	-0.0001	-0.0001	1
1701	2e-05	2e-05	1e-05	0	-1e-05	-2e-05	-0.0001	-0.0001	1
1702	-2e-05	-4e-05	-1e-05	-1e-05	-2e-05	-4e-05	-2e-05	-0.00013	1
1703	0	-2e-05	0	-2e-05	-1e-05	-1e-05	-4e-05	-3e-05	1
1704	0	-2e-05	0	-2e-05	-1e-05	-1e-05	-4e-05	-3e-05	1
1705	0	-2e-05	0	-2e-05	-1e-05	-1e-05	-4e-05	-3e-05	1
1706	0	-2e-05	0	-2e-05	-1e-05	-1e-05	-4e-05	-3e-05	1
1707	0	-2e-05	0	-2e-05	-1e-05	-1e-05	-4e-05	-3e-05	1
1708	0	-2e-05	0	-2e-05	-1e-05	-1e-05	-4e-05	-3e-05	1
1709	0	-2e-05	0	-2e-05	-1e-05	-1e-05	-4e-05	-3e-05	1
1710	0	-2e-05	0	-2e-05	-1e-05	-1e-05	-4e-05	-3e-05	1
1711	0	-2e-05	0	-2e-05	-1e-05	-1e-05	-4e-05	-3e-05	1
1712	0	-2e-05	0	-2e-05	-1e-05	-1e-05	-4e-05	-3e-05	1
1713	0	-2e-05	0	-2e-05	-1e-05	-1e-05	-4e-05	-3e-05	1
1714	0	-2e-05	0	-2e-05	-1e-05	-1e-05	-4e-05	-3e-05	1
1715	0	-2e-05	0	-2e-05	-1e-05	-1e-05	-4e-05	-3e-05	1
1716	0	-2e-05	0	-2e-05	-1e-05	-1e-05	-4e-05	-3e-05	1
1717	-1e-05	0	1e-05	0	0	0	2e-05	0	1
1718	-1e-05	0	1e-05	0	0	0	2e-05	0	1
1719	-1e-05	-1e-05	-4e-05	-1e-05	0	-1e-05	4e-05	-3e-05	1
1720	-1e-05	-1e-05	-4e-05	-1e-05	0	-1e-05	4e-05	-3e-05	1
1721	-1e-05	-1e-05	-4e-05	-1e-05	0	-1e-05	4e-05	-3e-05	1
1722	-1e-05	-1e-05	-4e-05	-1e-05	0	-1e-05	4e-05	-3e-05	1
1723	-1e-05	-1e-05	-4e-05	-1e-05	0	-1e-05	4e-05	-3e-05	1
1724	-1e-05	-1e-05	-4e-05	-1e-05	0	-1e-05	4e-05	-3e-05	1
1725	-1e-05	-1e-05	-4e-05	-1e-05	0	-1e-05	4e-05	-3e-05	1
1726	-1e-05	-1e-05	-4e-05	-1e-05	0	-1e-05	4e-05	-3e-05	1
1727	-1e-05	-1e-05	-4e-05	-1e-05	0	-1e-05	4e-05	-3e-05	1
1728	-1e-05	-1e-05	-4e-05	-1e-05	0	-1e-05	4e-05	-3e-05	1
1729	-1e-05	-1e-05	-4e-05	-1e-05	0	-1e-05	4e-05	-3e-05	1
1730	-1e-05	-1e-05	-4e-05	-1e-05	0	-1e-05	4e-05	-3e-05	1
1731	-1e-05	-1e-05	-4e-05	-1e-05	0	-1e-05	4e-05	-3e-05	1
1732	-1e-05	-1e-05	-4e-05	-1e-05	0	-1e-05	4e-05	-3e-05	1
1733	-1e-05	-1e-05	-4e-05	-1e-05	0	-1e-05	4e-05	-3e-05	1
1734	-1e-05	-1e-05	-4e-05	-1e-05	0	-1e-05	4e-05	-3e-05	1
1735	-1e-05	-1e-05	-4e-05	-1e-05	0	-1e-05	4e-05	-3e-05	1
1736	-1e-05	-1e-05	-4e-05	-1e-05	0	-1e-05	4e-05	-3e-05	1
1737	-1e-05	-1e-05	-4e-05	-1e-05	0	-1e-05	4e-05	-3e-05	1
1738	-1e-05	-1e-05	-4e-05	-1e-05	0	-1e-05	4e-05	-3e-05	1
1739	-1e-05	-1e-05	-4e-05	-1e-05	0	-1e-05	4e-05	-3e-05	1
1740	0	-1e-05	-1e-05	-2e-05	0	0	2e-05	3e-05	1
1741	0	-1e-05	-1e-05	-2e-05	0	0	2e-05	3e-05	1
1742	0	-1e-05	-1e-05	-2e-05	0	0	2e-05	3e-05	1
1743	0	-1e-05	-1e-05	-2e-05	0	0	2e-05	3e-05	1
1744	0	-1e-05	-1e-05	-2e-05	0	0	2e-05	3e-05	1
1745	0	-1e-05	-1e-05	-2e-05	0	0	2e-05	3e-05	1
1746	0	-1e-05	-1e-05	-2e-05	0	0	2e-05	3e-05	1
1747	0	-1e-05	-1e-05	-2e-05	0	0	2e-05	3e-05	1
1748	0	-1e-05	-1e-05	-2e-05	0	0	2e-05	3e-05	1
1749	0	-1e-05	-1e-05	-2e-05	0	0	2e-05	3e-05	1
1750	0	-1e-05	-1e-05	-2e-05	0	0	2e-05	3e-05	1
1751	0	-1e-05	-1e-05	-2e-05	0	0	2e-05	3e-05	1
1752	0	-1e-05	-1e-05	-2e-05	0	0	2e-05	3e-05	1
1753	0	-1e-05	-1e-05	-2e-05	0	0	2e-05	3e-05	1
1754	0	-1e-05	-1e-05	-2e-05	0	0	2e-05	3e-05	1
1755	0	-1e-05	-1e-05	-2e-05	0	0	2e-05	3e-05	1
1756	0	-1e-05	-1e-05	-2e-05	0	0	2e-05	3e-05	1
1757	0	-1e-05	-1e-05	-2e-05	0	0	2e-05	3e-05	1
1758	0	-1e-05	-1e-05	-2e-05	0	0	2e-05	3e-05	1
1759	0	-1e-05	-1e-05	-2e-05	0	0	2e-05	3e-05	1
1760	0	-1e-05	-1e-05	-2e-05	0	0	2e-05	3e-05	1
1761	0	-1e-05	-1e-05	-2e-05	0	0	2e-05	3e-05	1
1762	-1e-05	-2e-05	-3e-05	-2e-05	-2e-05	0	-7e-05	-3e-05	1
1763	-2e-05	-5e-05	-4e-05	-2e-05	0	-2e-05	1e-05	0.00013	1
1764	-2e-05	-5e-05	-4e-05	-2e-05	0	-2e-05	1e-05	0.00013	1
1766	-2e-05	-5e-05	-4e-05	-2e-05	0	-2e-05	1e-05	0.00013	1
1767	-2e-05	-5e-05	-4e-05	-2e-05	0	-2e-05	1e-05	0.00013	1
1768	-2e-05	-5e-05	-4e-05	-2e-05	0	-2e-05	1e-05	0.00013	1
1769	-2e-05	-5e-05	-4e-05	-2e-05	0	-2e-05	1e-05	0.00013	1
1770	-2e-05	-5e-05	-4e-05	-2e-05	0	-2e-05	1e-05	0.00013	1
1771	-2e-05	-5e-05	-4e-05	-2e-05	0	-2e-05	1e-05	0.00013	1
1772	-2e-05	-5e-05	-4e-05	-2e-05	0	-2e-05	1e-05	0.00013	1
1773	-2e-05	-5e-05	-4e-05	-2e-05	0	-2e-05	1e-05	0.00013	1
1774	-2e-05	-5e-05	-4e-05	-2e-05	0	-2e-05	1e-05	0.00013	1
1775	-2e-05	-5e-05	-4e-05	-2e-05	0	-2e-05	1e-05	0.00013	1
1776	-2e-05	-5e-05	-4e-05	-2e-05	0	-2e-05	1e-05	0.00013	1
1777	0	-4e-05	-3e-05	-1e-05	-2e-05	-1e-05	-6e-05	-7e-05	1
1778	0	1e-05	-3e-05	-1e-05	-1e-05	0	0.0001	-2e-05	1
1779	0	1e-05	-3e-05	-1e-05	-1e-05	0	0.0001	-2e-05	1
1780	0	1e-05	-3e-05	-1e-05	-1e-05	0	0.0001	-2e-05	1
1781	0	1e-05	-3e-05	-1e-05	-1e-05	0	0.0001	-2e-05	1
1782	0	1e-05	-3e-05	-1e-05	-1e-05	0	0.0001	-2e-05	1
1783	0	1e-05	-3e-05	-1e-05	-1e-05	0	0.0001	-2e-05	1
1784	0	1e-05	-3e-05	-1e-05	-1e-05	0	0.0001	-2e-05	1
1785	0	1e-05	-3e-05	-1e-05	-1e-05	0	0.0001	-2e-05	1
1786	0	1e-05	-3e-05	-1e-05	-1e-05	0	0.0001	-2e-05	1
1787	0	1e-05	-3e-05	-1e-05	-1e-05	0	0.0001	-2e-05	1
1788	0	1e-05	-3e-05	-1e-05	-1e-05	0	0.0001	-2e-05	1
1789	0	1e-05	-3e-05	-1e-05	-1e-05	0	0.0001	-2e-05	1
1790	0	1e-05	-3e-05	-1e-05	-1e-05	0	0.0001	-2e-05	1
1791	0	1e-05	-3e-05	-1e-05	-1e-05	0	0.0001	-2e-05	1
1792	0	1e-05	-3e-05	-1e-05	-1e-05	0	0.0001	-2e-05	1
1793	0	1e-05	-3e-05	-1e-05	-1e-05	0	0.0001	-2e-05	1
1794	0	1e-05	-3e-05	-1e-05	-1e-05	0	0.0001	-2e-05	1
1795	0	1e-05	-3e-05	-1e-05	-1e-05	0	0.0001	-2e-05	1
1796	0	1e-05	-3e-05	-1e-05	-1e-05	0	0.0001	-2e-05	1
1797	0	1e-05	-3e-05	-1e-05	-1e-05	0	0.0001	-2e-05	1
1798	0	1e-05	-3e-05	-1e-05	-1e-05	0	0.0001	-2e-05	1
1799	0	1e-05	-3e-05	-1e-05	-1e-05	0	0.0001	-2e-05	1
1800	-2e-05	-2e-05	-1e-05	-2e-05	-1e-05	-2e-05	-4e-05	-1e-05	1
1801	-2e-05	-2e-05	-1e-05	-2e-05	-1e-05	-2e-05	-4e-05	-1e-05	1
1802	-2e-05	-2e-05	-1e-05	-2e-05	-1e-05	-2e-05	-4e-05	-1e-05	1
1803	-2e-05	-2e-05	-1e-05	-2e-05	-1e-05	-2e-05	-4e-05	-1e-05	1
1804	-2e-05	-2e-05	-1e-05	-2e-05	-1e-05	-2e-05	-4e-05	-1e-05	1
1805	-2e-05	-2e-05	-1e-05	-2e-05	-1e-05	-2e-05	-4e-05	-1e-05	1
1806	-2e-05	-2e-05	-1e-05	-2e-05	-1e-05	-2e-05	-4e-05	-1e-05	1
1807	-2e-05	-2e-05	-1e-05	-2e-05	-1e-05	-2e-05	-4e-05	-1e-05	1
1808	-2e-05	-2e-05	-1e-05	-2e-05	-1e-05	-2e-05	-4e-05	-1e-05	1
1809	-2e-05	-2e-05	-1e-05	-2e-05	-1e-05	-2e-05	-4e-05	-1e-05	1
1810	-2e-05	-2e-05	-1e-05	-2e-05	-1e-05	-2e-05	-4e-05	-1e-05	1
1812	-2e-05	-2e-05	-1e-05	-2e-05	-1e-05	-2e-05	-4e-05	-1e-05	1
1813	-2e-05	-2e-05	-1e-05	-2e-05	-1e-05	-2e-05	-4e-05	-1e-05	1
1814	-2e-05	-2e-05	-1e-05	-2e-05	-1e-05	-2e-05	-4e-05	-1e-05	1
1815	-2e-05	-2e-05	-1e-05	-2e-05	-1e-05	-2e-05	-4e-05	-1e-05	1
1816	-2e-05	-2e-05	-1e-05	-2e-05	-1e-05	-2e-05	-4e-05	-1e-05	1
1817	-2e-05	-2e-05	-1e-05	-2e-05	-1e-05	-2e-05	-4e-05	-1e-05	1
1818	-2e-05	-2e-05	-1e-05	-2e-05	-1e-05	-2e-05	-4e-05	-1e-05	1
1819	-2e-05	-2e-05	-1e-05	-2e-05	-1e-05	-2e-05	-4e-05	-1e-05	1
1820	-2e-05	-2e-05	-1e-05	-2e-05	-1e-05	-2e-05	-4e-05	-1e-05	1
1821	-2e-05	-2e-05	-1e-05	-2e-05	-1e-05	-2e-05	-4e-05	-1e-05	1
1822	3e-05	1e-05	-1e-05	1e-05	0	0	-4e-05	9e-05	1
1823	-1e-05	3e-05	1e-05	0	-1e-05	1e-05	-2e-05	-4e-05	1
1824	-1e-05	3e-05	1e-05	0	-1e-05	1e-05	-2e-05	-4e-05	1
1825	-1e-05	3e-05	1e-05	0	-1e-05	1e-05	-2e-05	-4e-05	1
1826	-1e-05	3e-05	1e-05	0	-1e-05	1e-05	-2e-05	-4e-05	1
1827	-1e-05	3e-05	1e-05	0	-1e-05	1e-05	-2e-05	-4e-05	1
1828	-1e-05	3e-05	1e-05	0	-1e-05	1e-05	-2e-05	-4e-05	1
1829	-1e-05	3e-05	1e-05	0	-1e-05	1e-05	-2e-05	-4e-05	1
1830	-1e-05	3e-05	1e-05	0	-1e-05	1e-05	-2e-05	-4e-05	1
1831	-1e-05	3e-05	1e-05	0	-1e-05	1e-05	-2e-05	-4e-05	1
1832	-1e-05	3e-05	1e-05	0	-1e-05	1e-05	-2e-05	-4e-05	1
1833	-1e-05	3e-05	1e-05	0	-1e-05	1e-05	-2e-05	-4e-05	1
1834	-1e-05	3e-05	1e-05	0	-1e-05	1e-05	-2e-05	-4e-05	1
1835	-1e-05	3e-05	1e-05	0	-1e-05	1e-05	-2e-05	-4e-05	1
1836	-1e-05	3e-05	1e-05	0	-1e-05	1e-05	-2e-05	-4e-05	1
1837	-1e-05	3e-05	1e-05	0	-1e-05	1e-05	-2e-05	-4e-05	1
1838	2e-05	-1e-05	0	1e-05	0	0	-1e-05	0.00022	1
1839	2e-05	-1e-05	0	1e-05	0	0	-1e-05	0.00022	1
1840	2e-05	-1e-05	0	1e-05	0	0	-1e-05	0.00022	1
1841	2e-05	-1e-05	0	1e-05	0	0	-1e-05	0.00022	1
1842	2e-05	-1e-05	0	1e-05	0	0	-1e-05	0.00022	1
1843	2e-05	-1e-05	0	1e-05	0	0	-1e-05	0.00022	1
1844	2e-05	-1e-05	0	1e-05	0	0	-1e-05	0.00022	1
1845	2e-05	-1e-05	0	1e-05	0	0	-1e-05	0.00022	1
1846	2e-05	-1e-05	0	1e-05	0	0	-1e-05	0.00022	1
1847	2e-05	-1e-05	0	1e-05	0	0	-1e-05	0.00022	1
1848	2e-05	-1e-05	0	1e-05	0	0	-1e-05	0.00022	1
1849	2e-05	-1e-05	0	1e-05	0	0	-1e-05	0.00022	1
1850	2e-05	-1e-05	0	1e-05	0	0	-1e-05	0.00022	1
1851	2e-05	-1e-05	0	1e-05	0	0	-1e-05	0.00022	1
1852	2e-05	-1e-05	0	1e-05	0	0	-1e-05	0.00022	1
1853	2e-05	-1e-05	0	1e-05	0	0	-1e-05	0.00022	1
1854	2e-05	-1e-05	0	1e-05	0	0	-1e-05	0.00022	1
1855	2e-05	-1e-05	0	1e-05	0	0	-1e-05	0.00022	1
1856	2e-05	-1e-05	0	1e-05	0	0	-1e-05	0.00022	1
1857	2e-05	-1e-05	0	1e-05	0	0	-1e-05	0.00022	1
1859	2e-05	-1e-05	0	1e-05	0	0	-1e-05	0.00022	1
1860	-2e-05	-5e-05	2e-05	-2e-05	-1e-05	0	-5e-05	-9e-05	1
1861	-2e-05	-5e-05	2e-05	-2e-05	-1e-05	0	-5e-05	-9e-05	1
1862	-2e-05	-5e-05	2e-05	-2e-05	-1e-05	0	-5e-05	-9e-05	1
1863	-2e-05	-5e-05	2e-05	-2e-05	-1e-05	0	-5e-05	-9e-05	1
1864	-2e-05	-5e-05	2e-05	-2e-05	-1e-05	0	-5e-05	-9e-05	1
1865	-2e-05	-5e-05	2e-05	-2e-05	-1e-05	0	-5e-05	-9e-05	1
1866	-2e-05	-5e-05	2e-05	-2e-05	-1e-05	0	-5e-05	-9e-05	1
1867	-2e-05	-5e-05	2e-05	-2e-05	-1e-05	0	-5e-05	-9e-05	1
1868	-2e-05	-5e-05	2e-05	-2e-05	-1e-05	0	-5e-05	-9e-05	1
1869	-2e-05	-5e-05	2e-05	-2e-05	-1e-05	0	-5e-05	-9e-05	1
1870	-2e-05	-5e-05	2e-05	-2e-05	-1e-05	0	-5e-05	-9e-05	1
1871	-2e-05	-5e-05	2e-05	-2e-05	-1e-05	0	-5e-05	-9e-05	1
1872	-2e-05	-5e-05	2e-05	-2e-05	-1e-05	0	-5e-05	-9e-05	1
1873	-2e-05	-5e-05	2e-05	-2e-05	-1e-05	0	-5e-05	-9e-05	1
1874	-2e-05	-5e-05	2e-05	-2e-05	-1e-05	0	-5e-05	-9e-05	1
1875	-2e-05	-5e-05	2e-05	-2e-05	-1e-05	0	-5e-05	-9e-05	1
1876	-2e-05	-5e-05	2e-05	-2e-05	-1e-05	0	-5e-05	-9e-05	1
1877	-2e-05	-5e-05	2e-05	-2e-05	-1e-05	0	-5e-05	-9e-05	1
1878	-2e-05	-5e-05	2e-05	-2e-05	-1e-05	0	-5e-05	-9e-05	1
1879	-2e-05	-5e-05	2e-05	-2e-05	-1e-05	0	-5e-05	-9e-05	1
1880	-2e-05	-5e-05	2e-05	-2e-05	-1e-05	0	-5e-05	-9e-05	1
1881	-2e-05	-5e-05	2e-05	-2e-05	-1e-05	0	-5e-05	-9e-05	1
1882	2e-05	-1e-05	-1e-05	-2e-05	-1e-05	-3e-05	0	2e-05	1
1883	1e-05	-2e-05	-1e-05	0	-1e-05	-2e-05	-5e-05	-5e-05	1
1884	1e-05	-2e-05	-1e-05	0	-1e-05	-2e-05	-5e-05	-5e-05	1
1885	1e-05	-2e-05	-1e-05	0	-1e-05	-2e-05	-5e-05	-5e-05	1
1886	1e-05	-2e-05	-1e-05	0	-1e-05	-2e-05	-5e-05	-5e-05	1
1887	1e-05	-2e-05	-1e-05	0	-1e-05	-2e-05	-5e-05	-5e-05	1
1888	1e-05	-2e-05	-1e-05	0	-1e-05	-2e-05	-5e-05	-5e-05	1
1889	1e-05	-2e-05	-1e-05	0	-1e-05	-2e-05	-5e-05	-5e-05	1
1890	1e-05	-2e-05	-1e-05	0	-1e-05	-2e-05	-5e-05	-5e-05	1
1891	1e-05	-2e-05	-1e-05	0	-1e-05	-2e-05	-5e-05	-5e-05	1
1892	1e-05	-2e-05	-1e-05	0	-1e-05	-2e-05	-5e-05	-5e-05	1
1893	1e-05	-2e-05	-1e-05	0	-1e-05	-2e-05	-5e-05	-5e-05	1
1894	1e-05	-2e-05	-1e-05	0	-1e-05	-2e-05	-5e-05	-5e-05	1
1895	1e-05	-2e-05	-1e-05	0	-1e-05	-2e-05	-5e-05	-5e-05	1
1896	1e-05	-2e-05	-1e-05	0	-1e-05	-2e-05	-5e-05	-5e-05	1
1897	-3e-05	-2e-05	3e-05	0	-1e-05	-1e-05	-2e-05	-4e-05	1
1898	-1e-05	-2e-05	-3e-05	0	-2e-05	-5e-05	1e-05	-7e-05	1
1899	-1e-05	-2e-05	-3e-05	0	-2e-05	-5e-05	1e-05	-7e-05	1
1900	-1e-05	-2e-05	-3e-05	0	-2e-05	-5e-05	1e-05	-7e-05	1
1901	-1e-05	-2e-05	-3e-05	0	-2e-05	-5e-05	1e-05	-7e-05	1
1902	-1e-05	-2e-05	-3e-05	0	-2e-05	-5e-05	1e-05	-7e-05	1
1903	-1e-05	-2e-05	-3e-05	0	-2e-05	-5e-05	1e-05	-7e-05	1
1904	-1e-05	-2e-05	-3e-05	0	-2e-05	-5e-05	1e-05	-7e-05	1
1906	-1e-05	-2e-05	-3e-05	0	-2e-05	-5e-05	1e-05	-7e-05	1
1907	-1e-05	-2e-05	-3e-05	0	-2e-05	-5e-05	1e-05	-7e-05	1
1908	-1e-05	-2e-05	-3e-05	0	-2e-05	-5e-05	1e-05	-7e-05	1
1909	-1e-05	-2e-05	-3e-05	0	-2e-05	-5e-05	1e-05	-7e-05	1
1910	-1e-05	-2e-05	-3e-05	0	-2e-05	-5e-05	1e-05	-7e-05	1
1911	-1e-05	-2e-05	-3e-05	0	-2e-05	-5e-05	1e-05	-7e-05	1
1912	-1e-05	-2e-05	-3e-05	0	-2e-05	-5e-05	1e-05	-7e-05	1
1913	-1e-05	-2e-05	-3e-05	0	-2e-05	-5e-05	1e-05	-7e-05	1
1914	-1e-05	-2e-05	-3e-05	0	-2e-05	-5e-05	1e-05	-7e-05	1
1915	-1e-05	-2e-05	-3e-05	0	-2e-05	-5e-05	1e-05	-7e-05	1
1916	-1e-05	-2e-05	-3e-05	0	-2e-05	-5e-05	1e-05	-7e-05	1
1917	-1e-05	-2e-05	-3e-05	0	-2e-05	-5e-05	1e-05	-7e-05	1
1918	-1e-05	-2e-05	-3e-05	0	-2e-05	-5e-05	1e-05	-7e-05	1
1919	-1e-05	-2e-05	-3e-05	0	-2e-05	-5e-05	1e-05	-7e-05	1
1920	-2e-05	0	1e-05	1e-05	0	-1e-05	0	-0.00012	1
1921	-2e-05	0	1e-05	1e-05	0	-1e-05	0	-0.00012	1
1922	-2e-05	0	1e-05	1e-05	0	-1e-05	0	-0.00012	1
1923	-2e-05	0	1e-05	1e-05	0	-1e-05	0	-0.00012	1
1924	-2e-05	0	1e-05	1e-05	0	-1e-05	0	-0.00012	1
1925	-2e-05	0	1e-05	1e-05	0	-1e-05	0	-0.00012	1
1926	-2e-05	0	1e-05	1e-05	0	-1e-05	0	-0.00012	1
1927	-2e-05	0	1e-05	1e-05	0	-1e-05	0	-0.00012	1
1928	-2e-05	0	1e-05	1e-05	0	-1e-05	0	-0.00012	1
1929	-2e-05	0	1e-05	1e-05	0	-1e-05	0	-0.00012	1
1930	-2e-05	0	1e-05	1e-05	0	-1e-05	0	-0.00012	1
1931	-2e-05	0	1e-05	1e-05	0	-1e-05	0	-0.00012	1
1932	-2e-05	0	1e-05	1e-05	0	-1e-05	0	-0.00012	1
1933	-2e-05	0	1e-05	1e-05	0	-1e-05	0	-0.00012	1
1934	-2e-05	0	1e-05	1e-05	0	-1e-05	0	-0.00012	1
1935	-2e-05	0	1e-05	1e-05	0	-1e-05	0	-0.00012	1
1936	-2e-05	0	1e-05	1e-05	0	-1e-05	0	-0.00012	1
1937	-2e-05	0	1e-05	1e-05	0	-1e-05	0	-0.00012	1
1938	-2e-05	0	1e-05	1e-05	0	-1e-05	0	-0.00012	1
1939	-2e-05	0	1e-05	1e-05	0	-1e-05	0	-0.00012	1
1940	-2e-05	0	1e-05	1e-05	0	-1e-05	0	-0.00012	1
1941	-2e-05	0	1e-05	1e-05	0	-1e-05	0	-0.00012	1
1942	-2e-05	0	1e-05	1e-05	0	-1e-05	0	-0.00012	1
1943	-2e-05	-1e-05	0	-1e-05	-2e-05	1e-05	-3e-05	-2e-05	1
1944	0	-1e-05	-3e-05	0	-1e-05	-2e-05	0	-2e-05	1
1946	0	-1e-05	-3e-05	0	-1e-05	-2e-05	0	-2e-05	1
1947	0	-1e-05	-3e-05	0	-1e-05	-2e-05	0	-2e-05	1
1948	0	-1e-05	-3e-05	0	-1e-05	-2e-05	0	-2e-05	1
1949	0	-1e-05	-3e-05	0	-1e-05	-2e-05	0	-2e-05	1
1950	0	-1e-05	-3e-05	0	-1e-05	-2e-05	0	-2e-05	1
1951	0	-1e-05	-3e-05	0	-1e-05	-2e-05	0	-2e-05	1
1953	0	-1e-05	-3e-05	0	-1e-05	-2e-05	0	-2e-05	1
1954	0	-1e-05	-3e-05	0	-1e-05	-2e-05	0	-2e-05	1
1955	0	-1e-05	-3e-05	0	-1e-05	-2e-05	0	-2e-05	1
1956	0	-1e-05	-3e-05	0	-1e-05	-2e-05	0	-2e-05	1
1957	-1e-05	-1e-05	-2e-05	-1e-05	1e-05	1e-05	-1e-05	-3e-05	1
1958	-3e-05	0	-3e-05	-3e-05	-1e-05	1e-05	0	1e-05	1
1959	-3e-05	0	-3e-05	-3e-05	-1e-05	1e-05	0	1e-05	1
1960	-3e-05	0	-3e-05	-3e-05	-1e-05	1e-05	0	1e-05	1
1961	-3e-05	0	-3e-05	-3e-05	-1e-05	1e-05	0	1e-05	1
1962	-3e-05	0	-3e-05	-3e-05	-1e-05	1e-05	0	1e-05	1
1963	-3e-05	0	-3e-05	-3e-05	-1e-05	1e-05	0	1e-05	1
1964	-3e-05	0	-3e-05	-3e-05	-1e-05	1e-05	0	1e-05	1
1965	-3e-05	0	-3e-05	-3e-05	-1e-05	1e-05	0	1e-05	1
1966	-3e-05	0	-3e-05	-3e-05	-1e-05	1e-05	0	1e-05	1
1967	-3e-05	0	-3e-05	-3e-05	-1e-05	1e-05	0	1e-05	1
1968	-3e-05	0	-3e-05	-3e-05	-1e-05	1e-05	0	1e-05	1
1969	-3e-05	0	-3e-05	-3e-05	-1e-05	1e-05	0	1e-05	1
1970	-3e-05	0	-3e-05	-3e-05	-1e-05	1e-05	0	1e-05	1
1971	-3e-05	0	-3e-05	-3e-05	-1e-05	1e-05	0	1e-05	1
1972	-3e-05	0	-3e-05	-3e-05	-1e-05	1e-05	0	1e-05	1
1973	-3e-05	0	-3e-05	-3e-05	-1e-05	1e-05	0	1e-05	1
1974	-3e-05	0	-3e-05	-3e-05	-1e-05	1e-05	0	1e-05	1
1975	-3e-05	0	-3e-05	-3e-05	-1e-05	1e-05	0	1e-05	1
1976	-3e-05	0	-3e-05	-3e-05	-1e-05	1e-05	0	1e-05	1
1977	-3e-05	0	-3e-05	-3e-05	-1e-05	1e-05	0	1e-05	1
1978	-3e-05	0	-3e-05	-3e-05	-1e-05	1e-05	0	1e-05	1
1979	-3e-05	0	-3e-05	-3e-05	-1e-05	1e-05	0	1e-05	1
1980	0	-3e-05	0	-3e-05	-1e-05	-1e-05	2e-05	2e-05	1
1981	0	-3e-05	0	-3e-05	-1e-05	-1e-05	2e-05	2e-05	1
1982	0	-3e-05	0	-3e-05	-1e-05	-1e-05	2e-05	2e-05	1
1983	0	-3e-05	0	-3e-05	-1e-05	-1e-05	2e-05	2e-05	1
1984	0	-3e-05	0	-3e-05	-1e-05	-1e-05	2e-05	2e-05	1
1985	0	-3e-05	0	-3e-05	-1e-05	-1e-05	2e-05	2e-05	1
1986	0	-3e-05	0	-3e-05	-1e-05	-1e-05	2e-05	2e-05	1
1987	0	-3e-05	0	-3e-05	-1e-05	-1e-05	2e-05	2e-05	1
1988	0	-3e-05	0	-3e-05	-1e-05	-1e-05	2e-05	2e-05	1
1989	0	-3e-05	0	-3e-05	-1e-05	-1e-05	2e-05	2e-05	1
1990	0	-3e-05	0	-3e-05	-1e-05	-1e-05	2e-05	2e-05	1
1991	0	-3e-05	0	-3e-05	-1e-05	-1e-05	2e-05	2e-05	1
1992	0	-3e-05	0	-3e-05	-1e-05	-1e-05	2e-05	2e-05	1
1993	0	-3e-05	0	-3e-05	-1e-05	-1e-05	2e-05	2e-05	1
1994	0	-3e-05	0	-3e-05	-1e-05	-1e-05	2e-05	2e-05	1
1995	0	-3e-05	0	-3e-05	-1e-05	-1e-05	2e-05	2e-05	1
1996	0	-3e-05	0	-3e-05	-1e-05	-1e-05	2e-05	2e-05	1
1997	0	-3e-05	0	-3e-05	-1e-05	-1e-05	2e-05	2e-05	1
1999	0	-3e-05	0	-3e-05	-1e-05	-1e-05	2e-05	2e-05	1
2000	0	-3e-05	0	-3e-05	-1e-05	-1e-05	2e-05	2e-05	1
2001	0	-3e-05	0	-3e-05	-1e-05	-1e-05	2e-05	2e-05	1
2002	0	-3e-05	0	-3e-05	-1e-05	-1e-05	2e-05	2e-05	1
2003	-3e-05	-5e-05	-1e-05	0	-3e-05	0	-2e-05	-4e-05	1
2004	3e-05	2e-05	1e-05	1e-05	0	0	-7e-05	7e-05	1
2006	3e-05	2e-05	1e-05	1e-05	0	0	-7e-05	7e-05	1
2007	3e-05	2e-05	1e-05	1e-05	0	0	-7e-05	7e-05	1
2008	3e-05	2e-05	1e-05	1e-05	0	0	-7e-05	7e-05	1
2009	3e-05	2e-05	1e-05	1e-05	0	0	-7e-05	7e-05	1
2010	3e-05	2e-05	1e-05	1e-05	0	0	-7e-05	7e-05	1
2011	3e-05	2e-05	1e-05	1e-05	0	0	-7e-05	7e-05	1
2012	3e-05	2e-05	1e-05	1e-05	0	0	-7e-05	7e-05	1
2013	3e-05	2e-05	1e-05	1e-05	0	0	-7e-05	7e-05	1
2014	3e-05	2e-05	1e-05	1e-05	0	0	-7e-05	7e-05	1
2015	3e-05	2e-05	1e-05	1e-05	0	0	-7e-05	7e-05	1
2016	3e-05	2e-05	1e-05	1e-05	0	0	-7e-05	7e-05	1
2017	0	1e-05	-1e-05	0	1e-05	-5e-05	0	-1e-05	1
2018	-1e-05	-1e-05	1e-05	0	-1e-05	0	0	-2e-05	1
2019	-1e-05	-1e-05	1e-05	0	-1e-05	0	0	-2e-05	1
2020	-1e-05	-1e-05	1e-05	0	-1e-05	0	0	-2e-05	1
2021	-1e-05	-1e-05	1e-05	0	-1e-05	0	0	-2e-05	1
2022	-1e-05	-1e-05	1e-05	0	-1e-05	0	0	-2e-05	1
2023	-1e-05	-1e-05	1e-05	0	-1e-05	0	0	-2e-05	1
2024	-1e-05	-1e-05	1e-05	0	-1e-05	0	0	-2e-05	1
2025	-1e-05	-1e-05	1e-05	0	-1e-05	0	0	-2e-05	1
2026	-1e-05	-1e-05	1e-05	0	-1e-05	0	0	-2e-05	1
2027	-1e-05	-1e-05	1e-05	0	-1e-05	0	0	-2e-05	1
2028	-1e-05	-1e-05	1e-05	0	-1e-05	0	0	-2e-05	1
2029	-1e-05	-1e-05	1e-05	0	-1e-05	0	0	-2e-05	1
2030	-1e-05	-1e-05	1e-05	0	-1e-05	0	0	-2e-05	1
2031	-1e-05	-1e-05	1e-05	0	-1e-05	0	0	-2e-05	1
2032	-1e-05	-1e-05	1e-05	0	-1e-05	0	0	-2e-05	1
2033	-1e-05	-1e-05	1e-05	0	-1e-05	0	0	-2e-05	1
2034	-1e-05	-1e-05	1e-05	0	-1e-05	0	0	-2e-05	1
2035	-1e-05	-1e-05	1e-05	0	-1e-05	0	0	-2e-05	1
2036	-1e-05	-1e-05	1e-05	0	-1e-05	0	0	-2e-05	1
2037	-1e-05	-1e-05	1e-05	0	-1e-05	0	0	-2e-05	1
2038	-1e-05	-1e-05	1e-05	0	-1e-05	0	0	-2e-05	1
2039	-1e-05	-1e-05	1e-05	0	-1e-05	0	0	-2e-05	1
2040	-3e-05	0	-2e-05	-3e-05	-1e-05	0	-1e-05	-5e-05	1
2041	-3e-05	0	-2e-05	-3e-05	-1e-05	0	-1e-05	-5e-05	1
2042	-3e-05	0	-2e-05	-3e-05	-1e-05	0	-1e-05	-5e-05	1
2043	-3e-05	0	-2e-05	-3e-05	-1e-05	0	-1e-05	-5e-05	1
2044	-3e-05	0	-2e-05	-3e-05	-1e-05	0	-1e-05	-5e-05	1
2047	-3e-05	0	-2e-05	-3e-05	-1e-05	0	-1e-05	-5e-05	1
2048	-3e-05	0	-2e-05	-3e-05	-1e-05	0	-1e-05	-5e-05	1
2049	-3e-05	0	-2e-05	-3e-05	-1e-05	0	-1e-05	-5e-05	1
2050	-3e-05	0	-2e-05	-3e-05	-1e-05	0	-1e-05	-5e-05	1
2051	-3e-05	0	-2e-05	-3e-05	-1e-05	0	-1e-05	-5e-05	1
2052	-3e-05	0	-2e-05	-3e-05	-1e-05	0	-1e-05	-5e-05	1
2053	-3e-05	0	-2e-05	-3e-05	-1e-05	0	-1e-05	-5e-05	1
2054	-3e-05	0	-2e-05	-3e-05	-1e-05	0	-1e-05	-5e-05	1
2055	-3e-05	0	-2e-05	-3e-05	-1e-05	0	-1e-05	-5e-05	1
2056	-3e-05	0	-2e-05	-3e-05	-1e-05	0	-1e-05	-5e-05	1
2057	-3e-05	0	-2e-05	-3e-05	-1e-05	0	-1e-05	-5e-05	1
2058	-3e-05	0	-2e-05	-3e-05	-1e-05	0	-1e-05	-5e-05	1
2059	-3e-05	0	-2e-05	-3e-05	-1e-05	0	-1e-05	-5e-05	1
2060	-3e-05	0	-2e-05	-3e-05	-1e-05	0	-1e-05	-5e-05	1
2061	-3e-05	0	-2e-05	-3e-05	-1e-05	0	-1e-05	-5e-05	1
2062	-3e-05	0	-2e-05	-3e-05	-1e-05	0	-1e-05	-5e-05	1
2063	-2e-05	-2e-05	-2e-05	-2e-05	0	-2e-05	0	-1e-05	1
2064	0	-5e-05	0	0	0	-1e-05	0	1e-05	1
2065	0	-5e-05	0	0	0	-1e-05	0	1e-05	1
2066	0	-5e-05	0	0	0	-1e-05	0	1e-05	1
2067	0	-5e-05	0	0	0	-1e-05	0	1e-05	1
2068	0	-5e-05	0	0	0	-1e-05	0	1e-05	1
2069	0	-5e-05	0	0	0	-1e-05	0	1e-05	1
2070	0	-5e-05	0	0	0	-1e-05	0	1e-05	1
2071	0	-5e-05	0	0	0	-1e-05	0	1e-05	1
2072	0	-5e-05	0	0	0	-1e-05	0	1e-05	1
2073	0	-5e-05	0	0	0	-1e-05	0	1e-05	1
2074	0	-5e-05	0	0	0	-1e-05	0	1e-05	1
2075	0	-5e-05	0	0	0	-1e-05	0	1e-05	1
2076	0	-5e-05	0	0	0	-1e-05	0	1e-05	1
2077	0	-1e-05	-5e-05	-3e-05	-4e-05	-1e-05	9e-05	5e-05	1
2078	0	-1e-05	-1e-05	0	-1e-05	-2e-05	-3e-05	-1e-05	1
2079	0	-1e-05	-1e-05	0	-1e-05	-2e-05	-3e-05	-1e-05	1
2080	0	-1e-05	-1e-05	0	-1e-05	-2e-05	-3e-05	-1e-05	1
2081	0	-1e-05	-1e-05	0	-1e-05	-2e-05	-3e-05	-1e-05	1
2082	0	-1e-05	-1e-05	0	-1e-05	-2e-05	-3e-05	-1e-05	1
2083	0	-1e-05	-1e-05	0	-1e-05	-2e-05	-3e-05	-1e-05	1
2084	0	-1e-05	-1e-05	0	-1e-05	-2e-05	-3e-05	-1e-05	1
2085	0	-1e-05	-1e-05	0	-1e-05	-2e-05	-3e-05	-1e-05	1
2086	0	-1e-05	-1e-05	0	-1e-05	-2e-05	-3e-05	-1e-05	1
2087	0	-1e-05	-1e-05	0	-1e-05	-2e-05	-3e-05	-1e-05	1
2088	0	-1e-05	-1e-05	0	-1e-05	-2e-05	-3e-05	-1e-05	1
2089	0	-1e-05	-1e-05	0	-1e-05	-2e-05	-3e-05	-1e-05	1
2090	0	-1e-05	-1e-05	0	-1e-05	-2e-05	-3e-05	-1e-05	1
2091	0	-1e-05	-1e-05	0	-1e-05	-2e-05	-3e-05	-1e-05	1
2093	0	-1e-05	-1e-05	0	-1e-05	-2e-05	-3e-05	-1e-05	1
2094	0	-1e-05	-1e-05	0	-1e-05	-2e-05	-3e-05	-1e-05	1
2095	0	-1e-05	-1e-05	0	-1e-05	-2e-05	-3e-05	-1e-05	1
2096	0	-1e-05	-1e-05	0	-1e-05	-2e-05	-3e-05	-1e-05	1
2097	0	-1e-05	-1e-05	0	-1e-05	-2e-05	-3e-05	-1e-05	1
2098	0	-1e-05	-1e-05	0	-1e-05	-2e-05	-3e-05	-1e-05	1
2099	0	-1e-05	-1e-05	0	-1e-05	-2e-05	-3e-05	-1e-05	1
2100	1e-05	2e-05	0	0	-1e-05	0	1e-05	-9e-05	1
2101	1e-05	2e-05	0	0	-1e-05	0	1e-05	-9e-05	1
2102	1e-05	2e-05	0	0	-1e-05	0	1e-05	-9e-05	1
2103	1e-05	2e-05	0	0	-1e-05	0	1e-05	-9e-05	1
2104	1e-05	2e-05	0	0	-1e-05	0	1e-05	-9e-05	1
2105	1e-05	2e-05	0	0	-1e-05	0	1e-05	-9e-05	1
2106	1e-05	2e-05	0	0	-1e-05	0	1e-05	-9e-05	1
2107	1e-05	2e-05	0	0	-1e-05	0	1e-05	-9e-05	1
2108	1e-05	2e-05	0	0	-1e-05	0	1e-05	-9e-05	1
2109	1e-05	2e-05	0	0	-1e-05	0	1e-05	-9e-05	1
2110	1e-05	2e-05	0	0	-1e-05	0	1e-05	-9e-05	1
2111	1e-05	2e-05	0	0	-1e-05	0	1e-05	-9e-05	1
2112	1e-05	2e-05	0	0	-1e-05	0	1e-05	-9e-05	1
2113	1e-05	2e-05	0	0	-1e-05	0	1e-05	-9e-05	1
2114	1e-05	2e-05	0	0	-1e-05	0	1e-05	-9e-05	1
2115	1e-05	2e-05	0	0	-1e-05	0	1e-05	-9e-05	1
2116	1e-05	2e-05	0	0	-1e-05	0	1e-05	-9e-05	1
2117	1e-05	2e-05	0	0	-1e-05	0	1e-05	-9e-05	1
2118	1e-05	2e-05	0	0	-1e-05	0	1e-05	-9e-05	1
2119	1e-05	2e-05	0	0	-1e-05	0	1e-05	-9e-05	1
2120	1e-05	2e-05	0	0	-1e-05	0	1e-05	-9e-05	1
2121	1e-05	2e-05	0	0	-1e-05	0	1e-05	-9e-05	1
2122	1e-05	2e-05	0	0	-1e-05	0	1e-05	-9e-05	1
2123	-3e-05	0	-5e-05	-2e-05	-1e-05	-3e-05	-1e-05	-7e-05	1
2124	-1e-05	-1e-05	-1e-05	-3e-05	-1e-05	-1e-05	0	-3e-05	1
2125	-1e-05	-1e-05	-1e-05	-3e-05	-1e-05	-1e-05	0	-3e-05	1
2126	-1e-05	-1e-05	-1e-05	-3e-05	-1e-05	-1e-05	0	-3e-05	1
2127	-1e-05	-1e-05	-1e-05	-3e-05	-1e-05	-1e-05	0	-3e-05	1
2128	-1e-05	-1e-05	-1e-05	-3e-05	-1e-05	-1e-05	0	-3e-05	1
2129	-1e-05	-1e-05	-1e-05	-3e-05	-1e-05	-1e-05	0	-3e-05	1
2130	-1e-05	-1e-05	-1e-05	-3e-05	-1e-05	-1e-05	0	-3e-05	1
2131	-1e-05	-1e-05	-1e-05	-3e-05	-1e-05	-1e-05	0	-3e-05	1
2132	-1e-05	-1e-05	-1e-05	-3e-05	-1e-05	-1e-05	0	-3e-05	1
2133	-1e-05	-1e-05	-1e-05	-3e-05	-1e-05	-1e-05	0	-3e-05	1
2134	-1e-05	-1e-05	-1e-05	-3e-05	-1e-05	-1e-05	0	-3e-05	1
2135	-1e-05	-1e-05	-1e-05	-3e-05	-1e-05	-1e-05	0	-3e-05	1
2136	-1e-05	-1e-05	-1e-05	-3e-05	-1e-05	-1e-05	0	-3e-05	1
2137	-1e-05	-1e-05	-1e-05	-3e-05	-1e-05	-1e-05	0	-3e-05	1
2139	-1e-05	-1e-05	-1e-05	-3e-05	-1e-05	-1e-05	0	-3e-05	1
2140	0	-1e-05	-1e-05	-2e-05	-2e-05	-3e-05	-3e-05	-1e-05	1
2141	0	-1e-05	-1e-05	-2e-05	-2e-05	-3e-05	-3e-05	-1e-05	1
2142	0	-1e-05	-1e-05	-2e-05	-2e-05	-3e-05	-3e-05	-1e-05	1
2143	0	-1e-05	-1e-05	-2e-05	-2e-05	-3e-05	-3e-05	-1e-05	1
2144	0	-1e-05	-1e-05	-2e-05	-2e-05	-3e-05	-3e-05	-1e-05	1
2145	0	-1e-05	-1e-05	-2e-05	-2e-05	-3e-05	-3e-05	-1e-05	1
2146	0	-1e-05	-1e-05	-2e-05	-2e-05	-3e-05	-3e-05	-1e-05	1
2148	0	-1e-05	-1e-05	-2e-05	-2e-05	-3e-05	-3e-05	-1e-05	1
2149	0	-1e-05	-1e-05	-2e-05	-2e-05	-3e-05	-3e-05	-1e-05	1
2150	0	-1e-05	-1e-05	-2e-05	-2e-05	-3e-05	-3e-05	-1e-05	1
2151	0	-1e-05	-1e-05	-2e-05	-2e-05	-3e-05	-3e-05	-1e-05	1
2152	0	-1e-05	-1e-05	-2e-05	-2e-05	-3e-05	-3e-05	-1e-05	1
2153	0	-1e-05	-1e-05	-2e-05	-2e-05	-3e-05	-3e-05	-1e-05	1
2154	0	-1e-05	-1e-05	-2e-05	-2e-05	-3e-05	-3e-05	-1e-05	1
2155	0	-1e-05	-1e-05	-2e-05	-2e-05	-3e-05	-3e-05	-1e-05	1
2156	0	-1e-05	-1e-05	-2e-05	-2e-05	-3e-05	-3e-05	-1e-05	1
2157	0	-1e-05	-1e-05	-2e-05	-2e-05	-3e-05	-3e-05	-1e-05	1
2158	0	-1e-05	-1e-05	-2e-05	-2e-05	-3e-05	-3e-05	-1e-05	1
2159	0	-1e-05	-1e-05	-2e-05	-2e-05	-3e-05	-3e-05	-1e-05	1
2160	-1e-05	-1e-05	-1e-05	0	1e-05	0	-1e-05	0	1
2161	-1e-05	-1e-05	-1e-05	0	1e-05	0	-1e-05	0	1
2162	-1e-05	-1e-05	-1e-05	0	1e-05	0	-1e-05	0	1
2163	-1e-05	-1e-05	-1e-05	0	1e-05	0	-1e-05	0	1
2164	-1e-05	-1e-05	-1e-05	0	1e-05	0	-1e-05	0	1
2165	-1e-05	-1e-05	-1e-05	0	1e-05	0	-1e-05	0	1
2166	-1e-05	-1e-05	-1e-05	0	1e-05	0	-1e-05	0	1
2167	-1e-05	-1e-05	-1e-05	0	1e-05	0	-1e-05	0	1
2168	-1e-05	-1e-05	-1e-05	0	1e-05	0	-1e-05	0	1
2169	-1e-05	-1e-05	-1e-05	0	1e-05	0	-1e-05	0	1
2170	-1e-05	-1e-05	-1e-05	0	1e-05	0	-1e-05	0	1
2171	-1e-05	-1e-05	-1e-05	0	1e-05	0	-1e-05	0	1
2172	-1e-05	-1e-05	-1e-05	0	1e-05	0	-1e-05	0	1
2173	-1e-05	-1e-05	-1e-05	0	1e-05	0	-1e-05	0	1
2174	-1e-05	-1e-05	-1e-05	0	1e-05	0	-1e-05	0	1
2175	-1e-05	-1e-05	-1e-05	0	1e-05	0	-1e-05	0	1
2176	-1e-05	-1e-05	-1e-05	0	1e-05	0	-1e-05	0	1
2177	-1e-05	-1e-05	-1e-05	0	1e-05	0	-1e-05	0	1
2178	-1e-05	-1e-05	-1e-05	0	1e-05	0	-1e-05	0	1
2179	-1e-05	-1e-05	-1e-05	0	1e-05	0	-1e-05	0	1
2180	-1e-05	-1e-05	-1e-05	0	1e-05	0	-1e-05	0	1
2181	-1e-05	-1e-05	-1e-05	0	1e-05	0	-1e-05	0	1
2182	-1e-05	-1e-05	-1e-05	0	1e-05	0	-1e-05	0	1
2183	-2e-05	-3e-05	-1e-05	0	-1e-05	2e-05	0	-2e-05	1
2184	-3e-05	0	-2e-05	0	-1e-05	-1e-05	-1e-05	3e-05	1
2185	-3e-05	0	-2e-05	0	-1e-05	-1e-05	-1e-05	3e-05	1
2187	-3e-05	0	-2e-05	0	-1e-05	-1e-05	-1e-05	3e-05	1
2189	-3e-05	0	-2e-05	0	-1e-05	-1e-05	-1e-05	3e-05	1
2190	-3e-05	0	-2e-05	0	-1e-05	-1e-05	-1e-05	3e-05	1
2191	-3e-05	0	-2e-05	0	-1e-05	-1e-05	-1e-05	3e-05	1
2192	-3e-05	0	-2e-05	0	-1e-05	-1e-05	-1e-05	3e-05	1
2193	-3e-05	0	-2e-05	0	-1e-05	-1e-05	-1e-05	3e-05	1
2194	-3e-05	0	-2e-05	0	-1e-05	-1e-05	-1e-05	3e-05	1
2195	-3e-05	0	-2e-05	0	-1e-05	-1e-05	-1e-05	3e-05	1
2196	-3e-05	0	-2e-05	0	-1e-05	-1e-05	-1e-05	3e-05	1
2197	-1e-05	1e-05	0	-1e-05	0	-2e-05	-2e-05	-3e-05	1
2198	-2e-05	-4e-05	0	-1e-05	0	-1e-05	-4e-05	9e-05	1
2199	-2e-05	-4e-05	0	-1e-05	0	-1e-05	-4e-05	9e-05	1
2200	-2e-05	-4e-05	0	-1e-05	0	-1e-05	-4e-05	9e-05	1
2201	-2e-05	-4e-05	0	-1e-05	0	-1e-05	-4e-05	9e-05	1
2202	-2e-05	-4e-05	0	-1e-05	0	-1e-05	-4e-05	9e-05	1
2203	-2e-05	-4e-05	0	-1e-05	0	-1e-05	-4e-05	9e-05	1
2204	-2e-05	-4e-05	0	-1e-05	0	-1e-05	-4e-05	9e-05	1
2205	-2e-05	-4e-05	0	-1e-05	0	-1e-05	-4e-05	9e-05	1
2206	-2e-05	-4e-05	0	-1e-05	0	-1e-05	-4e-05	9e-05	1
2207	-2e-05	-4e-05	0	-1e-05	0	-1e-05	-4e-05	9e-05	1
2208	-2e-05	-4e-05	0	-1e-05	0	-1e-05	-4e-05	9e-05	1
2209	-2e-05	-4e-05	0	-1e-05	0	-1e-05	-4e-05	9e-05	1
2210	-2e-05	-4e-05	0	-1e-05	0	-1e-05	-4e-05	9e-05	1
2211	-2e-05	-4e-05	0	-1e-05	0	-1e-05	-4e-05	9e-05	1
2212	-2e-05	-4e-05	0	-1e-05	0	-1e-05	-4e-05	9e-05	1
2213	-2e-05	-4e-05	0	-1e-05	0	-1e-05	-4e-05	9e-05	1
2214	-2e-05	-4e-05	0	-1e-05	0	-1e-05	-4e-05	9e-05	1
2215	-2e-05	-4e-05	0	-1e-05	0	-1e-05	-4e-05	9e-05	1
2216	-2e-05	-4e-05	0	-1e-05	0	-1e-05	-4e-05	9e-05	1
2217	-2e-05	-4e-05	0	-1e-05	0	-1e-05	-4e-05	9e-05	1
2218	-2e-05	-4e-05	0	-1e-05	0	-1e-05	-4e-05	9e-05	1
2219	-2e-05	-4e-05	0	-1e-05	0	-1e-05	-4e-05	9e-05	1
2220	-1e-05	-1e-05	-2e-05	-3e-05	-3e-05	0	2e-05	-0.00012	1
2221	-1e-05	-1e-05	-2e-05	-3e-05	-3e-05	0	2e-05	-0.00012	1
2222	-1e-05	-1e-05	-2e-05	-3e-05	-3e-05	0	2e-05	-0.00012	1
2223	-1e-05	-1e-05	-2e-05	-3e-05	-3e-05	0	2e-05	-0.00012	1
2224	-1e-05	-1e-05	-2e-05	-3e-05	-3e-05	0	2e-05	-0.00012	1
2225	-1e-05	-1e-05	-2e-05	-3e-05	-3e-05	0	2e-05	-0.00012	1
2226	-1e-05	-1e-05	-2e-05	-3e-05	-3e-05	0	2e-05	-0.00012	1
2227	-1e-05	-1e-05	-2e-05	-3e-05	-3e-05	0	2e-05	-0.00012	1
2228	-1e-05	-1e-05	-2e-05	-3e-05	-3e-05	0	2e-05	-0.00012	1
2229	-1e-05	-1e-05	-2e-05	-3e-05	-3e-05	0	2e-05	-0.00012	1
2230	-1e-05	-1e-05	-2e-05	-3e-05	-3e-05	0	2e-05	-0.00012	1
2231	-1e-05	-1e-05	-2e-05	-3e-05	-3e-05	0	2e-05	-0.00012	1
2233	-1e-05	-1e-05	-2e-05	-3e-05	-3e-05	0	2e-05	-0.00012	1
2234	-1e-05	-1e-05	-2e-05	-3e-05	-3e-05	0	2e-05	-0.00012	1
2235	-1e-05	-1e-05	-2e-05	-3e-05	-3e-05	0	2e-05	-0.00012	1
2236	-1e-05	-1e-05	-2e-05	-3e-05	-3e-05	0	2e-05	-0.00012	1
2237	-1e-05	-1e-05	-2e-05	-3e-05	-3e-05	0	2e-05	-0.00012	1
2239	-1e-05	-1e-05	-2e-05	-3e-05	-3e-05	0	2e-05	-0.00012	1
2240	-1e-05	-1e-05	-2e-05	-3e-05	-3e-05	0	2e-05	-0.00012	1
2241	-1e-05	-1e-05	-2e-05	-3e-05	-3e-05	0	2e-05	-0.00012	1
2242	-1e-05	-1e-05	-2e-05	-3e-05	-3e-05	0	2e-05	-0.00012	1
2243	-1e-05	-3e-05	1e-05	1e-05	1e-05	2e-05	-4e-05	-4e-05	1
2244	-2e-05	2e-05	-1e-05	1e-05	0	-1e-05	-4e-05	1e-05	1
2245	-2e-05	2e-05	-1e-05	1e-05	0	-1e-05	-4e-05	1e-05	1
2246	-2e-05	2e-05	-1e-05	1e-05	0	-1e-05	-4e-05	1e-05	1
2247	-2e-05	2e-05	-1e-05	1e-05	0	-1e-05	-4e-05	1e-05	1
2248	-2e-05	2e-05	-1e-05	1e-05	0	-1e-05	-4e-05	1e-05	1
2249	-2e-05	2e-05	-1e-05	1e-05	0	-1e-05	-4e-05	1e-05	1
2250	-2e-05	2e-05	-1e-05	1e-05	0	-1e-05	-4e-05	1e-05	1
2251	-2e-05	2e-05	-1e-05	1e-05	0	-1e-05	-4e-05	1e-05	1
2252	-2e-05	2e-05	-1e-05	1e-05	0	-1e-05	-4e-05	1e-05	1
2253	-2e-05	2e-05	-1e-05	1e-05	0	-1e-05	-4e-05	1e-05	1
2254	-2e-05	2e-05	-1e-05	1e-05	0	-1e-05	-4e-05	1e-05	1
2255	-2e-05	2e-05	-1e-05	1e-05	0	-1e-05	-4e-05	1e-05	1
2256	-2e-05	2e-05	-1e-05	1e-05	0	-1e-05	-4e-05	1e-05	1
2257	-4e-05	-1e-05	0	0	-1e-05	-2e-05	-3e-05	-4e-05	1
2258	-1e-05	-1e-05	-2e-05	-2e-05	0	1e-05	-2e-05	-1e-05	1
2259	-1e-05	-1e-05	-2e-05	-2e-05	0	1e-05	-2e-05	-1e-05	1
2260	-1e-05	-1e-05	-2e-05	-2e-05	0	1e-05	-2e-05	-1e-05	1
2261	-1e-05	-1e-05	-2e-05	-2e-05	0	1e-05	-2e-05	-1e-05	1
2262	-1e-05	-1e-05	-2e-05	-2e-05	0	1e-05	-2e-05	-1e-05	1
2263	-1e-05	-1e-05	-2e-05	-2e-05	0	1e-05	-2e-05	-1e-05	1
2264	-1e-05	-1e-05	-2e-05	-2e-05	0	1e-05	-2e-05	-1e-05	1
2265	-1e-05	-1e-05	-2e-05	-2e-05	0	1e-05	-2e-05	-1e-05	1
2266	-1e-05	-1e-05	-2e-05	-2e-05	0	1e-05	-2e-05	-1e-05	1
2267	-1e-05	-1e-05	-2e-05	-2e-05	0	1e-05	-2e-05	-1e-05	1
2268	-1e-05	-1e-05	-2e-05	-2e-05	0	1e-05	-2e-05	-1e-05	1
2269	-1e-05	-1e-05	-2e-05	-2e-05	0	1e-05	-2e-05	-1e-05	1
2270	-1e-05	-1e-05	-2e-05	-2e-05	0	1e-05	-2e-05	-1e-05	1
2271	-1e-05	-1e-05	-2e-05	-2e-05	0	1e-05	-2e-05	-1e-05	1
2272	-1e-05	-1e-05	-2e-05	-2e-05	0	1e-05	-2e-05	-1e-05	1
2273	-1e-05	-1e-05	-2e-05	-2e-05	0	1e-05	-2e-05	-1e-05	1
2274	-1e-05	-1e-05	-2e-05	-2e-05	0	1e-05	-2e-05	-1e-05	1
2275	-1e-05	-1e-05	-2e-05	-2e-05	0	1e-05	-2e-05	-1e-05	1
2276	-1e-05	-1e-05	-2e-05	-2e-05	0	1e-05	-2e-05	-1e-05	1
2277	-1e-05	-1e-05	-2e-05	-2e-05	0	1e-05	-2e-05	-1e-05	1
2278	-1e-05	-1e-05	-2e-05	-2e-05	0	1e-05	-2e-05	-1e-05	1
2279	-1e-05	-1e-05	-2e-05	-2e-05	0	1e-05	-2e-05	-1e-05	1
2281	0	0	-3e-05	0	-1e-05	-2e-05	1e-05	-1e-05	1
2282	0	0	-3e-05	0	-1e-05	-2e-05	1e-05	-1e-05	1
2283	0	0	-3e-05	0	-1e-05	-2e-05	1e-05	-1e-05	1
2284	0	0	-3e-05	0	-1e-05	-2e-05	1e-05	-1e-05	1
2285	0	0	-3e-05	0	-1e-05	-2e-05	1e-05	-1e-05	1
2286	0	0	-3e-05	0	-1e-05	-2e-05	1e-05	-1e-05	1
2287	0	0	-3e-05	0	-1e-05	-2e-05	1e-05	-1e-05	1
2288	0	0	-3e-05	0	-1e-05	-2e-05	1e-05	-1e-05	1
2289	0	0	-3e-05	0	-1e-05	-2e-05	1e-05	-1e-05	1
2290	0	0	-3e-05	0	-1e-05	-2e-05	1e-05	-1e-05	1
2291	0	0	-3e-05	0	-1e-05	-2e-05	1e-05	-1e-05	1
2292	0	0	-3e-05	0	-1e-05	-2e-05	1e-05	-1e-05	1
2293	0	0	-3e-05	0	-1e-05	-2e-05	1e-05	-1e-05	1
2294	0	0	-3e-05	0	-1e-05	-2e-05	1e-05	-1e-05	1
2295	0	0	-3e-05	0	-1e-05	-2e-05	1e-05	-1e-05	1
2296	0	0	-3e-05	0	-1e-05	-2e-05	1e-05	-1e-05	1
2297	0	0	-3e-05	0	-1e-05	-2e-05	1e-05	-1e-05	1
2298	0	0	-3e-05	0	-1e-05	-2e-05	1e-05	-1e-05	1
2299	0	0	-3e-05	0	-1e-05	-2e-05	1e-05	-1e-05	1
2300	0	0	-3e-05	0	-1e-05	-2e-05	1e-05	-1e-05	1
2301	0	0	-3e-05	0	-1e-05	-2e-05	1e-05	-1e-05	1
2302	0	0	-3e-05	0	-1e-05	-2e-05	1e-05	-1e-05	1
2303	-1e-05	-1e-05	0	-1e-05	-1e-05	-1e-05	1e-05	5e-05	1
2304	0	0	-2e-05	1e-05	-2e-05	1e-05	-2e-05	1e-05	1
2305	0	0	-2e-05	1e-05	-2e-05	1e-05	-2e-05	1e-05	1
2306	0	0	-2e-05	1e-05	-2e-05	1e-05	-2e-05	1e-05	1
2307	0	0	-2e-05	1e-05	-2e-05	1e-05	-2e-05	1e-05	1
2308	0	0	-2e-05	1e-05	-2e-05	1e-05	-2e-05	1e-05	1
2309	0	0	-2e-05	1e-05	-2e-05	1e-05	-2e-05	1e-05	1
