time	channel1	channel2	channel3	channel4	channel5	channel6	channel7	channel8	class
1	0	-2e-05	-8e-05	-0.00017	-1e-05	2e-05	-2e-05	-2e-05	0
6	1e-05	-1e-05	-1e-05	0	-3e-05	-4e-05	0	0	0
7	1e-05	-1e-05	-1e-05	0	-3e-05	-4e-05	0	0	0
8	1e-05	-1e-05	-1e-05	0	-3e-05	-4e-05	0	0	0
9	1e-05	-1e-05	-1e-05	0	-3e-05	-4e-05	0	0	0
10	1e-05	-1e-05	-1e-05	0	-3e-05	-4e-05	0	0	0
11	1e-05	-1e-05	-1e-05	0	-3e-05	-4e-05	0	0	0
12	1e-05	-1e-05	-1e-05	0	-3e-05	-4e-05	0	0	0
13	1e-05	-1e-05	-1e-05	0	-3e-05	-4e-05	0	0	0
14	1e-05	-1e-05	-1e-05	0	-3e-05	-4e-05	0	0	0
15	1e-05	-1e-05	-1e-05	0	-3e-05	-4e-05	0	0	0
16	1e-05	-1e-05	-1e-05	0	-3e-05	-4e-05	0	0	0
17	1e-05	1e-05	2e-05	0.00011	2e-05	5e-05	0	0	0
18	1e-05	1e-05	2e-05	0.00011	2e-05	5e-05	0	0	0
19	-1e-05	-6e-05	-2e-05	2e-05	-1e-05	1e-05	-3e-05	-2e-05	0
20	-1e-05	-6e-05	-2e-05	2e-05	-1e-05	1e-05	-3e-05	-2e-05	0
21	-1e-05	-6e-05	-2e-05	2e-05	-1e-05	1e-05	-3e-05	-2e-05	0
22	-1e-05	-6e-05	-2e-05	2e-05	-1e-05	1e-05	-3e-05	-2e-05	0
23	-1e-05	-6e-05	-2e-05	2e-05	-1e-05	1e-05	-3e-05	-2e-05	0
24	-1e-05	-6e-05	-2e-05	2e-05	-1e-05	1e-05	-3e-05	-2e-05	0
25	-1e-05	-6e-05	-2e-05	2e-05	-1e-05	1e-05	-3e-05	-2e-05	0
26	-1e-05	-6e-05	-2e-05	2e-05	-1e-05	1e-05	-3e-05	-2e-05	0
27	-1e-05	-6e-05	-2e-05	2e-05	-1e-05	1e-05	-3e-05	-2e-05	0
28	-1e-05	-6e-05	-2e-05	2e-05	-1e-05	1e-05	-3e-05	-2e-05	0
29	-1e-05	-6e-05	-2e-05	2e-05	-1e-05	1e-05	-3e-05	-2e-05	0
30	-1e-05	-6e-05	-2e-05	2e-05	-1e-05	1e-05	-3e-05	-2e-05	0
31	0	-1e-05	2e-05	4e-05	-3e-05	2e-05	-1e-05	-2e-05	0
33	0	-1e-05	2e-05	4e-05	-3e-05	2e-05	-1e-05	-2e-05	0
34	0	-1e-05	2e-05	4e-05	-3e-05	2e-05	-1e-05	-2e-05	0
35	0	-1e-05	2e-05	4e-05	-3e-05	2e-05	-1e-05	-2e-05	0
45	-2e-05	-2e-05	-3e-05	3e-05	-3e-05	-4e-05	-1e-05	-2e-05	0
46	-2e-05	-2e-05	-3e-05	3e-05	-3e-05	-4e-05	-1e-05	-2e-05	0
47	-2e-05	-2e-05	-3e-05	3e-05	-3e-05	-4e-05	-1e-05	-2e-05	0
48	-2e-05	-2e-05	-3e-05	3e-05	-3e-05	-4e-05	-1e-05	-2e-05	0
49	-2e-05	-2e-05	-3e-05	3e-05	-3e-05	-4e-05	-1e-05	-2e-05	0
50	-2e-05	-2e-05	-3e-05	3e-05	-3e-05	-4e-05	-1e-05	-2e-05	0
51	-2e-05	-2e-05	-3e-05	3e-05	-3e-05	-4e-05	-1e-05	-2e-05	0
52	-2e-05	-2e-05	-3e-05	3e-05	-3e-05	-4e-05	-1e-05	-2e-05	0
53	-1e-05	-1e-05	-1e-05	-0.0001	-3e-05	-3e-05	-1e-05	-1e-05	0
54	-1e-05	-1e-05	-1e-05	-0.0001	-3e-05	-3e-05	-1e-05	-1e-05	0
55	-1e-05	-1e-05	-1e-05	-0.0001	-3e-05	-3e-05	-1e-05	-1e-05	0
56	-1e-05	-1e-05	-1e-05	-0.0001	-3e-05	-3e-05	-1e-05	-1e-05	0
57	-1e-05	-1e-05	-1e-05	-0.0001	-3e-05	-3e-05	-1e-05	-1e-05	0
58	-1e-05	-1e-05	-1e-05	-0.0001	-3e-05	-3e-05	-1e-05	-1e-05	0
59	-1e-05	-1e-05	-1e-05	-0.0001	-3e-05	-3e-05	-1e-05	-1e-05	0
60	-1e-05	-1e-05	-1e-05	-0.0001	-3e-05	-3e-05	-1e-05	-1e-05	0
61	-1e-05	-1e-05	-1e-05	-0.0001	-3e-05	-3e-05	-1e-05	-1e-05	0
62	-3e-05	-2e-05	-2e-05	-0.0001	-4e-05	-6e-05	0	0	0
63	-3e-05	-2e-05	-2e-05	-0.0001	-4e-05	-6e-05	0	0	0
64	-3e-05	-2e-05	-2e-05	-0.0001	-4e-05	-6e-05	0	0	0
65	-3e-05	-2e-05	-2e-05	-0.0001	-4e-05	-6e-05	0	0	0
66	-3e-05	-2e-05	-2e-05	-0.0001	-4e-05	-6e-05	0	0	0
67	-3e-05	-2e-05	-2e-05	-0.0001	-4e-05	-6e-05	0	0	0
68	-3e-05	-2e-05	-2e-05	-0.0001	-4e-05	-6e-05	0	0	0
69	-3e-05	-2e-05	-2e-05	-0.0001	-4e-05	-6e-05	0	0	0
70	-3e-05	-2e-05	-2e-05	-0.0001	-4e-05	-6e-05	0	0	0
71	-3e-05	-2e-05	-2e-05	-0.0001	-4e-05	-6e-05	0	0	0
72	-3e-05	-2e-05	-2e-05	-0.0001	-4e-05	-6e-05	0	0	0
73	-3e-05	-2e-05	-2e-05	-0.0001	-4e-05	-6e-05	0	0	0
74	-3e-05	-2e-05	-2e-05	-0.0001	-4e-05	-6e-05	0	0	0
75	-3e-05	-2e-05	-2e-05	-0.0001	-4e-05	-6e-05	0	0	0
76	-3e-05	-2e-05	-2e-05	-0.0001	-4e-05	-6e-05	0	0	0
77	-2e-05	-1e-05	-1e-05	-6e-05	-2e-05	0	0	0	0
78	-2e-05	-1e-05	-1e-05	-6e-05	-2e-05	0	0	0	0
79	0	2e-05	3e-05	0.00014	4e-05	0	-3e-05	-3e-05	0
80	0	2e-05	3e-05	0.00014	4e-05	0	-3e-05	-3e-05	0
81	0	2e-05	3e-05	0.00014	4e-05	0	-3e-05	-3e-05	0
82	0	2e-05	3e-05	0.00014	4e-05	0	-3e-05	-3e-05	0
83	0	2e-05	3e-05	0.00014	4e-05	0	-3e-05	-3e-05	0
84	0	2e-05	3e-05	0.00014	4e-05	0	-3e-05	-3e-05	0
85	0	2e-05	3e-05	0.00014	4e-05	0	-3e-05	-3e-05	0
86	0	2e-05	3e-05	0.00014	4e-05	0	-3e-05	-3e-05	0
89	0	2e-05	3e-05	0.00014	4e-05	0	-3e-05	-3e-05	0
90	0	2e-05	3e-05	0.00014	4e-05	0	-3e-05	-3e-05	0
91	-1e-05	0	-7e-05	-8e-05	-4e-05	-6e-05	-2e-05	-1e-05	0
92	-2e-05	0	0	-6e-05	1e-05	0	-1e-05	0	0
93	-2e-05	0	0	-6e-05	1e-05	0	-1e-05	0	0
94	-2e-05	0	0	-6e-05	1e-05	0	-1e-05	0	0
95	-2e-05	0	0	-6e-05	1e-05	0	-1e-05	0	0
96	-2e-05	0	0	-6e-05	1e-05	0	-1e-05	0	0
97	-2e-05	0	0	-6e-05	1e-05	0	-1e-05	0	0
98	-2e-05	0	0	-6e-05	1e-05	0	-1e-05	0	0
99	-2e-05	0	0	-6e-05	1e-05	0	-1e-05	0	0
100	-2e-05	-1e-05	-2e-05	-6e-05	-3e-05	2e-05	-1e-05	0	0
101	-2e-05	-1e-05	-2e-05	-6e-05	-3e-05	2e-05	-1e-05	0	0
102	-2e-05	-1e-05	-2e-05	-6e-05	-3e-05	2e-05	-1e-05	0	0
103	-2e-05	-1e-05	-2e-05	-6e-05	-3e-05	2e-05	-1e-05	0	0
104	-2e-05	-1e-05	-2e-05	-6e-05	-3e-05	2e-05	-1e-05	0	0
105	-2e-05	-1e-05	-2e-05	-6e-05	-3e-05	2e-05	-1e-05	0	0
106	-2e-05	-1e-05	-2e-05	-6e-05	-3e-05	2e-05	-1e-05	0	0
107	-2e-05	-1e-05	-2e-05	-6e-05	-3e-05	2e-05	-1e-05	0	0
108	-2e-05	-1e-05	-2e-05	-6e-05	-3e-05	2e-05	-1e-05	0	0
109	-2e-05	-1e-05	-2e-05	-6e-05	-3e-05	2e-05	-1e-05	0	0
110	-2e-05	-1e-05	-2e-05	-6e-05	-3e-05	2e-05	-1e-05	0	0
111	-2e-05	-1e-05	-2e-05	-6e-05	-3e-05	2e-05	-1e-05	0	0
112	-2e-05	-1e-05	-2e-05	-6e-05	-3e-05	2e-05	-1e-05	0	0
113	0	0	3e-05	0.00012	0	-1e-05	0	-2e-05	0
114	0	0	3e-05	0.00012	0	-1e-05	0	-2e-05	0
115	0	0	3e-05	0.00012	0	-1e-05	0	-2e-05	0
116	0	0	3e-05	0.00012	0	-1e-05	0	-2e-05	0
117	0	0	3e-05	0.00012	0	-1e-05	0	-2e-05	0
118	0	0	3e-05	0.00012	0	-1e-05	0	-2e-05	0
119	0	0	3e-05	0.00012	0	-1e-05	0	-2e-05	0
120	0	0	3e-05	0.00012	0	-1e-05	0	-2e-05	0
121	0	0	3e-05	0.00012	0	-1e-05	0	-2e-05	0
122	-2e-05	-8e-05	-0.00019	-0.00018	-6e-05	-4e-05	0	-4e-05	0
123	-2e-05	-8e-05	-0.00019	-0.00018	-6e-05	-4e-05	0	-4e-05	0
124	-2e-05	-8e-05	-0.00019	-0.00018	-6e-05	-4e-05	0	-4e-05	0
125	-2e-05	-8e-05	-0.00019	-0.00018	-6e-05	-4e-05	0	-4e-05	0
126	-2e-05	-8e-05	-0.00019	-0.00018	-6e-05	-4e-05	0	-4e-05	0
127	-2e-05	-8e-05	-0.00019	-0.00018	-6e-05	-4e-05	0	-4e-05	0
128	-2e-05	-8e-05	-0.00019	-0.00018	-6e-05	-4e-05	0	-4e-05	0
129	-2e-05	-8e-05	-0.00019	-0.00018	-6e-05	-4e-05	0	-4e-05	0
130	-2e-05	-8e-05	-0.00019	-0.00018	-6e-05	-4e-05	0	-4e-05	0
131	-2e-05	-8e-05	-0.00019	-0.00018	-6e-05	-4e-05	0	-4e-05	0
132	-2e-05	-8e-05	-0.00019	-0.00018	-6e-05	-4e-05	0	-4e-05	0
133	-2e-05	-8e-05	-0.00019	-0.00018	-6e-05	-4e-05	0	-4e-05	0
134	-2e-05	-8e-05	-0.00019	-0.00018	-6e-05	-4e-05	0	-4e-05	0
135	-2e-05	-8e-05	-0.00019	-0.00018	-6e-05	-4e-05	0	-4e-05	0
136	-2e-05	-8e-05	-0.00019	-0.00018	-6e-05	-4e-05	0	-4e-05	0
139	0	3e-05	5e-05	5e-05	0	-4e-05	2e-05	0	0
140	0	3e-05	5e-05	5e-05	0	-4e-05	2e-05	0	0
142	0	3e-05	5e-05	5e-05	0	-4e-05	2e-05	0	0
143	0	3e-05	5e-05	5e-05	0	-4e-05	2e-05	0	0
144	0	3e-05	5e-05	5e-05	0	-4e-05	2e-05	0	0
145	0	3e-05	5e-05	5e-05	0	-4e-05	2e-05	0	0
146	0	3e-05	5e-05	5e-05	0	-4e-05	2e-05	0	0
147	0	3e-05	5e-05	5e-05	0	-4e-05	2e-05	0	0
148	0	3e-05	5e-05	5e-05	0	-4e-05	2e-05	0	0
149	0	3e-05	5e-05	5e-05	0	-4e-05	2e-05	0	0
150	0	3e-05	5e-05	5e-05	0	-4e-05	2e-05	0	0
151	-3e-05	-3e-05	0	9e-05	1e-05	-4e-05	-1e-05	-1e-05	0
152	-3e-05	-3e-05	0	9e-05	1e-05	-4e-05	-1e-05	-1e-05	0
153	-3e-05	-3e-05	0	9e-05	1e-05	-4e-05	-1e-05	-1e-05	0
154	-3e-05	-3e-05	0	9e-05	1e-05	-4e-05	-1e-05	-1e-05	0
155	-3e-05	-3e-05	0	9e-05	1e-05	-4e-05	-1e-05	-1e-05	0
156	-3e-05	-3e-05	0	9e-05	1e-05	-4e-05	-1e-05	-1e-05	0
157	-3e-05	-3e-05	0	9e-05	1e-05	-4e-05	-1e-05	-1e-05	0
158	-3e-05	-3e-05	0	9e-05	1e-05	-4e-05	-1e-05	-1e-05	0
159	-3e-05	-3e-05	0	9e-05	1e-05	-4e-05	-1e-05	-1e-05	0
160	0	1e-05	0	-0.0001	-1e-05	3e-05	-2e-05	0	0
161	0	1e-05	0	-0.0001	-1e-05	3e-05	-2e-05	0	0
162	0	1e-05	0	-0.0001	-1e-05	3e-05	-2e-05	0	0
163	0	1e-05	0	-0.0001	-1e-05	3e-05	-2e-05	0	0
164	0	1e-05	0	-0.0001	-1e-05	3e-05	-2e-05	0	0
165	0	1e-05	0	-0.0001	-1e-05	3e-05	-2e-05	0	0
166	0	1e-05	0	-0.0001	-1e-05	3e-05	-2e-05	0	0
167	0	1e-05	0	-0.0001	-1e-05	3e-05	-2e-05	0	0
168	0	1e-05	0	-0.0001	-1e-05	3e-05	-2e-05	0	0
169	0	1e-05	0	-0.0001	-1e-05	3e-05	-2e-05	0	0
170	0	1e-05	0	-0.0001	-1e-05	3e-05	-2e-05	0	0
171	0	1e-05	0	-0.0001	-1e-05	3e-05	-2e-05	0	0
172	0	1e-05	0	-0.0001	-1e-05	3e-05	-2e-05	0	0
173	-1e-05	0	0	-2e-05	-2e-05	0	0	-1e-05	0
174	-1e-05	0	0	-2e-05	-2e-05	0	0	-1e-05	0
175	-1e-05	0	0	-2e-05	-2e-05	0	0	-1e-05	0
176	-1e-05	0	0	-2e-05	-2e-05	0	0	-1e-05	0
177	-1e-05	0	0	-2e-05	-2e-05	0	0	-1e-05	0
178	-1e-05	0	0	-2e-05	-2e-05	0	0	-1e-05	0
179	-1e-05	0	0	-2e-05	-2e-05	0	0	-1e-05	0
180	-1e-05	0	0	-2e-05	-2e-05	0	0	-1e-05	0
181	-1e-05	0	0	-2e-05	-2e-05	0	0	-1e-05	0
182	-2e-05	-2e-05	5e-05	0.00015	0	-1e-05	-1e-05	-1e-05	0
183	-2e-05	-2e-05	5e-05	0.00015	0	-1e-05	-1e-05	-1e-05	0
184	-2e-05	-2e-05	5e-05	0.00015	0	-1e-05	-1e-05	-1e-05	0
185	-2e-05	-2e-05	5e-05	0.00015	0	-1e-05	-1e-05	-1e-05	0
186	-2e-05	-2e-05	5e-05	0.00015	0	-1e-05	-1e-05	-1e-05	0
188	-2e-05	-2e-05	5e-05	0.00015	0	-1e-05	-1e-05	-1e-05	0
190	-2e-05	-2e-05	5e-05	0.00015	0	-1e-05	-1e-05	-1e-05	0
191	-2e-05	-2e-05	5e-05	0.00015	0	-1e-05	-1e-05	-1e-05	0
192	-2e-05	-2e-05	5e-05	0.00015	0	-1e-05	-1e-05	-1e-05	0
193	-2e-05	-2e-05	5e-05	0.00015	0	-1e-05	-1e-05	-1e-05	0
194	-2e-05	-2e-05	5e-05	0.00015	0	-1e-05	-1e-05	-1e-05	0
195	-2e-05	-2e-05	5e-05	0.00015	0	-1e-05	-1e-05	-1e-05	0
196	-2e-05	-2e-05	5e-05	0.00015	0	-1e-05	-1e-05	-1e-05	0
197	1e-05	0	-3e-05	-4e-05	-1e-05	1e-05	-2e-05	-1e-05	0
198	-1e-05	-4e-05	-5e-05	-5e-05	-2e-05	-3e-05	-2e-05	-1e-05	0
199	-2e-05	-4e-05	-5e-05	-7e-05	-2e-05	-9e-05	-1e-05	0	0
200	-2e-05	-4e-05	-5e-05	-7e-05	-2e-05	-9e-05	-1e-05	0	0
201	-2e-05	-4e-05	-5e-05	-7e-05	-2e-05	-9e-05	-1e-05	0	0
202	-2e-05	-4e-05	-5e-05	-7e-05	-2e-05	-9e-05	-1e-05	0	0
203	-2e-05	-4e-05	-5e-05	-7e-05	-2e-05	-9e-05	-1e-05	0	0
204	-2e-05	-4e-05	-5e-05	-7e-05	-2e-05	-9e-05	-1e-05	0	0
205	-2e-05	-4e-05	-5e-05	-7e-05	-2e-05	-9e-05	-1e-05	0	0
206	-2e-05	-4e-05	-5e-05	-7e-05	-2e-05	-9e-05	-1e-05	0	0
207	-2e-05	-4e-05	-5e-05	-7e-05	-2e-05	-9e-05	-1e-05	0	0
208	-2e-05	-4e-05	-5e-05	-7e-05	-2e-05	-9e-05	-1e-05	0	0
209	-2e-05	-4e-05	-5e-05	-7e-05	-2e-05	-9e-05	-1e-05	0	0
210	-2e-05	-4e-05	-5e-05	-7e-05	-2e-05	-9e-05	-1e-05	0	0
211	0	1e-05	2e-05	-0.00012	-2e-05	-1e-05	0	-1e-05	0
212	0	1e-05	2e-05	-0.00012	-2e-05	-1e-05	0	-1e-05	0
213	0	1e-05	2e-05	-0.00012	-2e-05	-1e-05	0	-1e-05	0
214	0	1e-05	2e-05	-0.00012	-2e-05	-1e-05	0	-1e-05	0
215	0	1e-05	2e-05	-0.00012	-2e-05	-1e-05	0	-1e-05	0
216	0	1e-05	2e-05	-0.00012	-2e-05	-1e-05	0	-1e-05	0
217	0	1e-05	2e-05	-0.00012	-2e-05	-1e-05	0	-1e-05	0
218	0	1e-05	2e-05	-0.00012	-2e-05	-1e-05	0	-1e-05	0
219	0	1e-05	2e-05	-0.00012	-2e-05	-1e-05	0	-1e-05	0
220	0	1e-05	2e-05	-0.00012	-2e-05	-1e-05	0	-1e-05	0
221	0	1e-05	2e-05	-0.00012	-2e-05	-1e-05	0	-1e-05	0
222	0	1e-05	2e-05	-0.00012	-2e-05	-1e-05	0	-1e-05	0
223	0	1e-05	2e-05	-0.00012	-2e-05	-1e-05	0	-1e-05	0
224	0	1e-05	2e-05	-0.00012	-2e-05	-1e-05	0	-1e-05	0
225	0	1e-05	2e-05	-0.00012	-2e-05	-1e-05	0	-1e-05	0
226	0	1e-05	2e-05	-0.00012	-2e-05	-1e-05	0	-1e-05	0
227	-1e-05	0	0	-7e-05	1e-05	5e-05	-2e-05	-2e-05	0
228	-1e-05	0	0	-7e-05	1e-05	5e-05	-2e-05	-2e-05	0
229	-1e-05	0	0	-7e-05	1e-05	5e-05	-2e-05	-2e-05	0
230	-1e-05	0	0	-7e-05	1e-05	5e-05	-2e-05	-2e-05	0
231	-1e-05	0	0	-7e-05	1e-05	5e-05	-2e-05	-2e-05	0
232	-1e-05	0	0	-7e-05	1e-05	5e-05	-2e-05	-2e-05	0
233	-1e-05	-3e-05	-1e-05	-5e-05	0	-4e-05	1e-05	0	0
234	-1e-05	-3e-05	-1e-05	-5e-05	0	-4e-05	1e-05	0	0
235	-1e-05	-3e-05	-1e-05	-5e-05	0	-4e-05	1e-05	0	0
236	-1e-05	-3e-05	-1e-05	-5e-05	0	-4e-05	1e-05	0	0
239	-1e-05	-3e-05	-1e-05	-5e-05	0	-4e-05	1e-05	0	0
241	-1e-05	-3e-05	-1e-05	-5e-05	0	-4e-05	1e-05	0	0
242	-1e-05	-3e-05	2e-05	0.00012	-4e-05	-9e-05	1e-05	1e-05	0
243	2e-05	1e-05	1e-05	-6e-05	2e-05	-1e-05	-3e-05	-2e-05	0
244	2e-05	1e-05	1e-05	-6e-05	2e-05	-1e-05	-3e-05	-2e-05	0
245	2e-05	1e-05	1e-05	-6e-05	2e-05	-1e-05	-3e-05	-2e-05	0
246	2e-05	1e-05	1e-05	-6e-05	2e-05	-1e-05	-3e-05	-2e-05	0
247	2e-05	1e-05	1e-05	-6e-05	2e-05	-1e-05	-3e-05	-2e-05	0
248	2e-05	1e-05	1e-05	-6e-05	2e-05	-1e-05	-3e-05	-2e-05	0
249	2e-05	1e-05	1e-05	-6e-05	2e-05	-1e-05	-3e-05	-2e-05	0
250	2e-05	1e-05	1e-05	-6e-05	2e-05	-1e-05	-3e-05	-2e-05	0
251	2e-05	1e-05	1e-05	-6e-05	2e-05	-1e-05	-3e-05	-2e-05	0
252	2e-05	1e-05	1e-05	-6e-05	2e-05	-1e-05	-3e-05	-2e-05	0
253	2e-05	1e-05	1e-05	-6e-05	2e-05	-1e-05	-3e-05	-2e-05	0
254	2e-05	1e-05	1e-05	-6e-05	2e-05	-1e-05	-3e-05	-2e-05	0
255	2e-05	1e-05	1e-05	-6e-05	2e-05	-1e-05	-3e-05	-2e-05	0
256	2e-05	1e-05	1e-05	-6e-05	2e-05	-1e-05	-3e-05	-2e-05	0
257	1e-05	3e-05	4e-05	1e-05	4e-05	5e-05	-1e-05	1e-05	0
258	1e-05	3e-05	4e-05	1e-05	4e-05	5e-05	-1e-05	1e-05	0
259	-4e-05	0	1e-05	-3e-05	-4e-05	-5e-05	-2e-05	-3e-05	0
260	-2e-05	-3e-05	-5e-05	-4e-05	0	2e-05	0	-1e-05	0
261	-2e-05	-3e-05	-5e-05	-4e-05	0	2e-05	0	-1e-05	0
262	-2e-05	-3e-05	-5e-05	-4e-05	0	2e-05	0	-1e-05	0
264	-2e-05	-3e-05	-5e-05	-4e-05	0	2e-05	0	-1e-05	0
265	-2e-05	-3e-05	-5e-05	-4e-05	0	2e-05	0	-1e-05	0
266	-2e-05	-3e-05	-5e-05	-4e-05	0	2e-05	0	-1e-05	0
267	-2e-05	-3e-05	-5e-05	-4e-05	0	2e-05	0	-1e-05	0
268	-2e-05	-3e-05	-5e-05	-4e-05	0	2e-05	0	-1e-05	0
269	-2e-05	-3e-05	-5e-05	-4e-05	0	2e-05	0	-1e-05	0
270	-2e-05	-3e-05	-5e-05	-4e-05	0	2e-05	0	-1e-05	0
272	0	1e-05	-3e-05	1e-05	1e-05	-3e-05	-2e-05	-2e-05	0
273	0	1e-05	-3e-05	1e-05	1e-05	-3e-05	-2e-05	-2e-05	0
274	0	1e-05	-3e-05	1e-05	1e-05	-3e-05	-2e-05	-2e-05	0
275	0	1e-05	-3e-05	1e-05	1e-05	-3e-05	-2e-05	-2e-05	0
276	0	1e-05	-3e-05	1e-05	1e-05	-3e-05	-2e-05	-2e-05	0
277	0	1e-05	-3e-05	1e-05	1e-05	-3e-05	-2e-05	-2e-05	0
278	0	1e-05	-3e-05	1e-05	1e-05	-3e-05	-2e-05	-2e-05	0
279	0	1e-05	-3e-05	1e-05	1e-05	-3e-05	-2e-05	-2e-05	0
280	-3e-05	-4e-05	-6e-05	-3e-05	-1e-05	-0.00011	-1e-05	-1e-05	0
281	-3e-05	-4e-05	-6e-05	-3e-05	-1e-05	-0.00011	-1e-05	-1e-05	0
282	-3e-05	-4e-05	-6e-05	-3e-05	-1e-05	-0.00011	-1e-05	-1e-05	0
283	-3e-05	-4e-05	-6e-05	-3e-05	-1e-05	-0.00011	-1e-05	-1e-05	0
284	-3e-05	-4e-05	-6e-05	-3e-05	-1e-05	-0.00011	-1e-05	-1e-05	0
285	-3e-05	-4e-05	-6e-05	-3e-05	-1e-05	-0.00011	-1e-05	-1e-05	0
287	-3e-05	-4e-05	-6e-05	-3e-05	-1e-05	-0.00011	-1e-05	-1e-05	0
289	-3e-05	-4e-05	-6e-05	-3e-05	-1e-05	-0.00011	-1e-05	-1e-05	0
291	-3e-05	-4e-05	-6e-05	-3e-05	-1e-05	-0.00011	-1e-05	-1e-05	0
292	-3e-05	-4e-05	-6e-05	-3e-05	-1e-05	-0.00011	-1e-05	-1e-05	0
293	-3e-05	-4e-05	-6e-05	-3e-05	-1e-05	-0.00011	-1e-05	-1e-05	0
294	-1e-05	-4e-05	-1e-05	2e-05	-2e-05	2e-05	1e-05	-1e-05	0
295	-1e-05	-4e-05	-1e-05	2e-05	-2e-05	2e-05	1e-05	-1e-05	0
296	-1e-05	-4e-05	-1e-05	2e-05	-2e-05	2e-05	1e-05	-1e-05	0
297	-1e-05	-4e-05	-1e-05	2e-05	-2e-05	2e-05	1e-05	-1e-05	0
298	-1e-05	-4e-05	-1e-05	2e-05	-2e-05	2e-05	1e-05	-1e-05	0
299	-1e-05	-4e-05	-1e-05	2e-05	-2e-05	2e-05	1e-05	-1e-05	0
300	-1e-05	-4e-05	-1e-05	2e-05	-2e-05	2e-05	1e-05	-1e-05	0
301	-1e-05	-4e-05	-1e-05	2e-05	-2e-05	2e-05	1e-05	-1e-05	0
302	-2e-05	2e-05	6e-05	9e-05	-2e-05	3e-05	-1e-05	0	0
303	-2e-05	2e-05	6e-05	9e-05	-2e-05	3e-05	-1e-05	0	0
304	-2e-05	2e-05	6e-05	9e-05	-2e-05	3e-05	-1e-05	0	0
305	-2e-05	2e-05	6e-05	9e-05	-2e-05	3e-05	-1e-05	0	0
306	-2e-05	2e-05	6e-05	9e-05	-2e-05	3e-05	-1e-05	0	0
307	-2e-05	2e-05	6e-05	9e-05	-2e-05	3e-05	-1e-05	0	0
308	-2e-05	2e-05	6e-05	9e-05	-2e-05	3e-05	-1e-05	0	0
309	-2e-05	2e-05	6e-05	9e-05	-2e-05	3e-05	-1e-05	0	0
310	-2e-05	2e-05	6e-05	9e-05	-2e-05	3e-05	-1e-05	0	0
311	-2e-05	2e-05	6e-05	9e-05	-2e-05	3e-05	-1e-05	0	0
312	-2e-05	2e-05	6e-05	9e-05	-2e-05	3e-05	-1e-05	0	0
313	-2e-05	2e-05	6e-05	9e-05	-2e-05	3e-05	-1e-05	0	0
314	-2e-05	2e-05	6e-05	9e-05	-2e-05	3e-05	-1e-05	0	0
315	-2e-05	2e-05	6e-05	9e-05	-2e-05	3e-05	-1e-05	0	0
316	-2e-05	2e-05	6e-05	9e-05	-2e-05	3e-05	-1e-05	0	0
317	-1e-05	3e-05	-1e-05	1e-05	1e-05	-2e-05	-1e-05	1e-05	0
318	-1e-05	-6e-05	-5e-05	-9e-05	0	1e-05	0	-1e-05	0
320	1e-05	0	4e-05	0	-2e-05	1e-05	-1e-05	-2e-05	0
321	1e-05	0	4e-05	0	-2e-05	1e-05	-1e-05	-2e-05	0
322	1e-05	0	4e-05	0	-2e-05	1e-05	-1e-05	-2e-05	0
323	1e-05	0	4e-05	0	-2e-05	1e-05	-1e-05	-2e-05	0
324	1e-05	0	4e-05	0	-2e-05	1e-05	-1e-05	-2e-05	0
325	1e-05	0	4e-05	0	-2e-05	1e-05	-1e-05	-2e-05	0
326	1e-05	0	4e-05	0	-2e-05	1e-05	-1e-05	-2e-05	0
327	1e-05	0	4e-05	0	-2e-05	1e-05	-1e-05	-2e-05	0
328	1e-05	0	4e-05	0	-2e-05	1e-05	-1e-05	-2e-05	0
329	1e-05	0	4e-05	0	-2e-05	1e-05	-1e-05	-2e-05	0
330	1e-05	0	4e-05	0	-2e-05	1e-05	-1e-05	-2e-05	0
331	-2e-05	-1e-05	-4e-05	7e-05	0	3e-05	0	-2e-05	0
332	-2e-05	-1e-05	-4e-05	7e-05	0	3e-05	0	-2e-05	0
333	-2e-05	-1e-05	-4e-05	7e-05	0	3e-05	0	-2e-05	0
334	-2e-05	-1e-05	-4e-05	7e-05	0	3e-05	0	-2e-05	0
335	-2e-05	-1e-05	-4e-05	7e-05	0	3e-05	0	-2e-05	0
336	-2e-05	-1e-05	-4e-05	7e-05	0	3e-05	0	-2e-05	0
339	-2e-05	-1e-05	-4e-05	7e-05	0	3e-05	0	-2e-05	0
340	-1e-05	0	1e-05	-2e-05	-2e-05	1e-05	0	0	0
341	-1e-05	0	1e-05	-2e-05	-2e-05	1e-05	0	0	0
342	-1e-05	0	1e-05	-2e-05	-2e-05	1e-05	0	0	0
343	-1e-05	0	1e-05	-2e-05	-2e-05	1e-05	0	0	0
344	-1e-05	0	1e-05	-2e-05	-2e-05	1e-05	0	0	0
345	-1e-05	0	1e-05	-2e-05	-2e-05	1e-05	0	0	0
346	-1e-05	0	1e-05	-2e-05	-2e-05	1e-05	0	0	0
347	-1e-05	0	1e-05	-2e-05	-2e-05	1e-05	0	0	0
348	-1e-05	0	1e-05	-2e-05	-2e-05	1e-05	0	0	0
349	-1e-05	0	1e-05	-2e-05	-2e-05	1e-05	0	0	0
350	-1e-05	0	1e-05	-2e-05	-2e-05	1e-05	0	0	0
351	-1e-05	0	1e-05	-2e-05	-2e-05	1e-05	0	0	0
352	-1e-05	0	1e-05	-2e-05	-2e-05	1e-05	0	0	0
353	0	0	1e-05	-6e-05	-3e-05	-4e-05	-3e-05	-1e-05	0
354	0	0	1e-05	-6e-05	-3e-05	-4e-05	-3e-05	-1e-05	0
355	0	0	1e-05	-6e-05	-3e-05	-4e-05	-3e-05	-1e-05	0
356	0	0	1e-05	-6e-05	-3e-05	-4e-05	-3e-05	-1e-05	0
357	0	0	1e-05	-6e-05	-3e-05	-4e-05	-3e-05	-1e-05	0
358	0	0	1e-05	-6e-05	-3e-05	-4e-05	-3e-05	-1e-05	0
359	0	0	1e-05	-6e-05	-3e-05	-4e-05	-3e-05	-1e-05	0
360	0	0	1e-05	-6e-05	-3e-05	-4e-05	-3e-05	-1e-05	0
361	0	0	1e-05	-6e-05	-3e-05	-4e-05	-3e-05	-1e-05	0
362	-1e-05	-1e-05	2e-05	0.00017	-7e-05	-0.00034	-3e-05	0	0
363	-1e-05	-1e-05	2e-05	0.00017	-7e-05	-0.00034	-3e-05	0	0
364	-1e-05	-1e-05	2e-05	0.00017	-7e-05	-0.00034	-3e-05	0	0
365	-1e-05	-1e-05	2e-05	0.00017	-7e-05	-0.00034	-3e-05	0	0
366	-1e-05	-1e-05	2e-05	0.00017	-7e-05	-0.00034	-3e-05	0	0
367	-1e-05	-1e-05	2e-05	0.00017	-7e-05	-0.00034	-3e-05	0	0
368	-1e-05	-1e-05	2e-05	0.00017	-7e-05	-0.00034	-3e-05	0	0
369	-1e-05	-1e-05	2e-05	0.00017	-7e-05	-0.00034	-3e-05	0	0
370	-1e-05	-1e-05	2e-05	0.00017	-7e-05	-0.00034	-3e-05	0	0
371	-1e-05	-1e-05	2e-05	0.00017	-7e-05	-0.00034	-3e-05	0	0
372	-1e-05	-1e-05	2e-05	0.00017	-7e-05	-0.00034	-3e-05	0	0
373	-1e-05	-1e-05	2e-05	0.00017	-7e-05	-0.00034	-3e-05	0	0
374	-1e-05	-1e-05	2e-05	0.00017	-7e-05	-0.00034	-3e-05	0	0
375	-1e-05	-1e-05	2e-05	0.00017	-7e-05	-0.00034	-3e-05	0	0
376	-1e-05	-1e-05	2e-05	0.00017	-7e-05	-0.00034	-3e-05	0	0
377	0	1e-05	2e-05	-2e-05	-2e-05	1e-05	0	0	0
378	-1e-05	-2e-05	-3e-05	-1e-05	-4e-05	-5e-05	-1e-05	1e-05	0
379	0	1e-05	-3e-05	-5e-05	1e-05	7e-05	-1e-05	-1e-05	0
380	0	1e-05	-3e-05	-5e-05	1e-05	7e-05	-1e-05	-1e-05	0
381	0	1e-05	-3e-05	-5e-05	1e-05	7e-05	-1e-05	-1e-05	0
382	0	1e-05	-3e-05	-5e-05	1e-05	7e-05	-1e-05	-1e-05	0
383	0	1e-05	-3e-05	-5e-05	1e-05	7e-05	-1e-05	-1e-05	0
384	0	1e-05	-3e-05	-5e-05	1e-05	7e-05	-1e-05	-1e-05	0
385	0	1e-05	-3e-05	-5e-05	1e-05	7e-05	-1e-05	-1e-05	0
386	0	1e-05	-3e-05	-5e-05	1e-05	7e-05	-1e-05	-1e-05	0
388	0	1e-05	-3e-05	-5e-05	1e-05	7e-05	-1e-05	-1e-05	0
389	0	1e-05	-3e-05	-5e-05	1e-05	7e-05	-1e-05	-1e-05	0
390	0	1e-05	-3e-05	-5e-05	1e-05	7e-05	-1e-05	-1e-05	0
391	-2e-05	3e-05	3e-05	-6e-05	-4e-05	-0.00011	-2e-05	-1e-05	0
392	-2e-05	3e-05	3e-05	-6e-05	-4e-05	-0.00011	-2e-05	-1e-05	0
393	-2e-05	3e-05	3e-05	-6e-05	-4e-05	-0.00011	-2e-05	-1e-05	0
394	-2e-05	3e-05	3e-05	-6e-05	-4e-05	-0.00011	-2e-05	-1e-05	0
395	-2e-05	3e-05	3e-05	-6e-05	-4e-05	-0.00011	-2e-05	-1e-05	0
396	-2e-05	3e-05	3e-05	-6e-05	-4e-05	-0.00011	-2e-05	-1e-05	0
397	-2e-05	3e-05	3e-05	-6e-05	-4e-05	-0.00011	-2e-05	-1e-05	0
398	-2e-05	3e-05	3e-05	-6e-05	-4e-05	-0.00011	-2e-05	-1e-05	0
399	-2e-05	3e-05	3e-05	-6e-05	-4e-05	-0.00011	-2e-05	-1e-05	0
400	-1e-05	-4e-05	-0.00012	-0.00014	-2e-05	7e-05	-1e-05	-3e-05	0
401	-1e-05	-4e-05	-0.00012	-0.00014	-2e-05	7e-05	-1e-05	-3e-05	0
402	-1e-05	-4e-05	-0.00012	-0.00014	-2e-05	7e-05	-1e-05	-3e-05	0
403	-1e-05	-4e-05	-0.00012	-0.00014	-2e-05	7e-05	-1e-05	-3e-05	0
404	-1e-05	-4e-05	-0.00012	-0.00014	-2e-05	7e-05	-1e-05	-3e-05	0
405	-1e-05	-4e-05	-0.00012	-0.00014	-2e-05	7e-05	-1e-05	-3e-05	0
406	-1e-05	-4e-05	-0.00012	-0.00014	-2e-05	7e-05	-1e-05	-3e-05	0
407	-1e-05	-4e-05	-0.00012	-0.00014	-2e-05	7e-05	-1e-05	-3e-05	0
408	-1e-05	-4e-05	-0.00012	-0.00014	-2e-05	7e-05	-1e-05	-3e-05	0
409	-1e-05	-4e-05	-0.00012	-0.00014	-2e-05	7e-05	-1e-05	-3e-05	0
410	-1e-05	-4e-05	-0.00012	-0.00014	-2e-05	7e-05	-1e-05	-3e-05	0
411	-1e-05	-4e-05	-0.00012	-0.00014	-2e-05	7e-05	-1e-05	-3e-05	0
412	-1e-05	-4e-05	-0.00012	-0.00014	-2e-05	7e-05	-1e-05	-3e-05	0
413	-1e-05	-3e-05	-2e-05	-2e-05	-1e-05	2e-05	-3e-05	-4e-05	0
414	-1e-05	-3e-05	-2e-05	-2e-05	-1e-05	2e-05	-3e-05	-4e-05	0
415	-1e-05	-3e-05	-2e-05	-2e-05	-1e-05	2e-05	-3e-05	-4e-05	0
416	-1e-05	-3e-05	-2e-05	-2e-05	-1e-05	2e-05	-3e-05	-4e-05	0
417	-1e-05	-3e-05	-2e-05	-2e-05	-1e-05	2e-05	-3e-05	-4e-05	0
418	-1e-05	-3e-05	-2e-05	-2e-05	-1e-05	2e-05	-3e-05	-4e-05	0
419	-1e-05	-3e-05	-2e-05	-2e-05	-1e-05	2e-05	-3e-05	-4e-05	0
420	-1e-05	-3e-05	-2e-05	-2e-05	-1e-05	2e-05	-3e-05	-4e-05	0
421	-1e-05	-3e-05	-2e-05	-2e-05	-1e-05	2e-05	-3e-05	-4e-05	0
422	-1e-05	1e-05	1e-05	-3e-05	2e-05	3e-05	2e-05	1e-05	0
423	-1e-05	1e-05	1e-05	-3e-05	2e-05	3e-05	2e-05	1e-05	0
424	-1e-05	1e-05	1e-05	-3e-05	2e-05	3e-05	2e-05	1e-05	0
425	-1e-05	1e-05	1e-05	-3e-05	2e-05	3e-05	2e-05	1e-05	0
426	-1e-05	1e-05	1e-05	-3e-05	2e-05	3e-05	2e-05	1e-05	0
427	-1e-05	1e-05	1e-05	-3e-05	2e-05	3e-05	2e-05	1e-05	0
428	-1e-05	1e-05	1e-05	-3e-05	2e-05	3e-05	2e-05	1e-05	0
429	-1e-05	1e-05	1e-05	-3e-05	2e-05	3e-05	2e-05	1e-05	0
430	-1e-05	1e-05	1e-05	-3e-05	2e-05	3e-05	2e-05	1e-05	0
431	-1e-05	1e-05	1e-05	-3e-05	2e-05	3e-05	2e-05	1e-05	0
432	-1e-05	1e-05	1e-05	-3e-05	2e-05	3e-05	2e-05	1e-05	0
433	-1e-05	1e-05	1e-05	-3e-05	2e-05	3e-05	2e-05	1e-05	0
434	-1e-05	1e-05	1e-05	-3e-05	2e-05	3e-05	2e-05	1e-05	0
435	-1e-05	1e-05	1e-05	-3e-05	2e-05	3e-05	2e-05	1e-05	0
436	-1e-05	1e-05	1e-05	-3e-05	2e-05	3e-05	2e-05	1e-05	0
439	1e-05	0	3e-05	3e-05	-1e-05	1e-05	2e-05	0	0
440	1e-05	0	3e-05	3e-05	-1e-05	1e-05	2e-05	0	0
441	1e-05	0	3e-05	3e-05	-1e-05	1e-05	2e-05	0	0
442	1e-05	0	3e-05	3e-05	-1e-05	1e-05	2e-05	0	0
443	1e-05	0	3e-05	3e-05	-1e-05	1e-05	2e-05	0	0
444	1e-05	0	3e-05	3e-05	-1e-05	1e-05	2e-05	0	0
445	1e-05	0	3e-05	3e-05	-1e-05	1e-05	2e-05	0	0
446	1e-05	0	3e-05	3e-05	-1e-05	1e-05	2e-05	0	0
447	1e-05	0	3e-05	3e-05	-1e-05	1e-05	2e-05	0	0
448	1e-05	0	3e-05	3e-05	-1e-05	1e-05	2e-05	0	0
449	1e-05	0	3e-05	3e-05	-1e-05	1e-05	2e-05	0	0
450	1e-05	0	3e-05	3e-05	-1e-05	1e-05	2e-05	0	0
451	-2e-05	0	-3e-05	-8e-05	1e-05	1e-05	-1e-05	0	0
452	-2e-05	0	-3e-05	-8e-05	1e-05	1e-05	-1e-05	0	0
453	-2e-05	0	-3e-05	-8e-05	1e-05	1e-05	-1e-05	0	0
454	-2e-05	0	-3e-05	-8e-05	1e-05	1e-05	-1e-05	0	0
455	-2e-05	0	-3e-05	-8e-05	1e-05	1e-05	-1e-05	0	0
456	-2e-05	0	-3e-05	-8e-05	1e-05	1e-05	-1e-05	0	0
457	-2e-05	0	-3e-05	-8e-05	1e-05	1e-05	-1e-05	0	0
458	-2e-05	0	-3e-05	-8e-05	1e-05	1e-05	-1e-05	0	0
459	-2e-05	0	-3e-05	-8e-05	1e-05	1e-05	-1e-05	0	0
460	-2e-05	0	-3e-05	-8e-05	1e-05	1e-05	-1e-05	0	0
461	1e-05	1e-05	1e-05	-2e-05	3e-05	7e-05	-2e-05	0	0
462	1e-05	1e-05	1e-05	-2e-05	3e-05	7e-05	-2e-05	0	0
463	1e-05	1e-05	1e-05	-2e-05	3e-05	7e-05	-2e-05	0	0
464	1e-05	1e-05	1e-05	-2e-05	3e-05	7e-05	-2e-05	0	0
465	1e-05	1e-05	1e-05	-2e-05	3e-05	7e-05	-2e-05	0	0
466	1e-05	1e-05	1e-05	-2e-05	3e-05	7e-05	-2e-05	0	0
467	1e-05	1e-05	1e-05	-2e-05	3e-05	7e-05	-2e-05	0	0
468	1e-05	1e-05	1e-05	-2e-05	3e-05	7e-05	-2e-05	0	0
469	1e-05	1e-05	1e-05	-2e-05	3e-05	7e-05	-2e-05	0	0
470	1e-05	1e-05	1e-05	-2e-05	3e-05	7e-05	-2e-05	0	0
471	1e-05	1e-05	1e-05	-2e-05	3e-05	7e-05	-2e-05	0	0
472	1e-05	1e-05	1e-05	-2e-05	3e-05	7e-05	-2e-05	0	0
473	1e-05	-1e-05	2e-05	6e-05	3e-05	2e-05	0	0	0
474	1e-05	-1e-05	2e-05	6e-05	3e-05	2e-05	0	0	0
475	1e-05	-1e-05	2e-05	6e-05	3e-05	2e-05	0	0	0
476	1e-05	-1e-05	2e-05	6e-05	3e-05	2e-05	0	0	0
477	1e-05	-1e-05	2e-05	6e-05	3e-05	2e-05	0	0	0
478	1e-05	-1e-05	2e-05	6e-05	3e-05	2e-05	0	0	0
479	1e-05	-1e-05	2e-05	6e-05	3e-05	2e-05	0	0	0
480	1e-05	-1e-05	2e-05	6e-05	3e-05	2e-05	0	0	0
481	1e-05	-1e-05	2e-05	6e-05	3e-05	2e-05	0	0	0
482	0	-1e-05	2e-05	5e-05	1e-05	0.00013	3e-05	0	0
483	0	-1e-05	2e-05	5e-05	1e-05	0.00013	3e-05	0	0
484	0	-1e-05	2e-05	5e-05	1e-05	0.00013	3e-05	0	0
485	0	-1e-05	2e-05	5e-05	1e-05	0.00013	3e-05	0	0
487	0	-1e-05	2e-05	5e-05	1e-05	0.00013	3e-05	0	0
489	0	-1e-05	2e-05	5e-05	1e-05	0.00013	3e-05	0	0
491	0	-1e-05	2e-05	5e-05	1e-05	0.00013	3e-05	0	0
492	0	-1e-05	2e-05	5e-05	1e-05	0.00013	3e-05	0	0
493	0	-1e-05	2e-05	5e-05	1e-05	0.00013	3e-05	0	0
494	0	-1e-05	2e-05	5e-05	1e-05	0.00013	3e-05	0	0
495	0	-1e-05	2e-05	5e-05	1e-05	0.00013	3e-05	0	0
496	0	-1e-05	2e-05	5e-05	1e-05	0.00013	3e-05	0	0
497	-2e-05	-1e-05	-5e-05	-7e-05	-3e-05	-0.00011	-1e-05	-1e-05	0
498	-2e-05	-1e-05	-5e-05	-7e-05	-3e-05	-0.00011	-1e-05	-1e-05	0
499	-1e-05	-1e-05	-1e-05	2e-05	-3e-05	-1e-05	-1e-05	-1e-05	0
500	-1e-05	-1e-05	-1e-05	2e-05	-3e-05	-1e-05	-1e-05	-1e-05	0
501	-1e-05	-1e-05	-1e-05	2e-05	-3e-05	-1e-05	-1e-05	-1e-05	0
502	-1e-05	-1e-05	-1e-05	2e-05	-3e-05	-1e-05	-1e-05	-1e-05	0
503	-1e-05	-1e-05	-1e-05	2e-05	-3e-05	-1e-05	-1e-05	-1e-05	0
504	-1e-05	-1e-05	-1e-05	2e-05	-3e-05	-1e-05	-1e-05	-1e-05	0
505	-1e-05	-1e-05	-1e-05	2e-05	-3e-05	-1e-05	-1e-05	-1e-05	0
506	-1e-05	-1e-05	-1e-05	2e-05	-3e-05	-1e-05	-1e-05	-1e-05	0
507	-1e-05	-1e-05	-1e-05	2e-05	-3e-05	-1e-05	-1e-05	-1e-05	0
508	-1e-05	-1e-05	-1e-05	2e-05	-3e-05	-1e-05	-1e-05	-1e-05	0
509	-1e-05	-1e-05	-1e-05	2e-05	-3e-05	-1e-05	-1e-05	-1e-05	0
511	-1e-05	-1e-05	-1e-05	2e-05	-3e-05	-1e-05	-1e-05	-1e-05	0
512	1e-05	0	5e-05	5e-05	1e-05	-6e-05	-1e-05	-1e-05	0
513	1e-05	0	5e-05	5e-05	1e-05	-6e-05	-1e-05	-1e-05	0
514	1e-05	0	5e-05	5e-05	1e-05	-6e-05	-1e-05	-1e-05	0
515	1e-05	0	5e-05	5e-05	1e-05	-6e-05	-1e-05	-1e-05	0
516	1e-05	0	5e-05	5e-05	1e-05	-6e-05	-1e-05	-1e-05	0
517	1e-05	0	5e-05	5e-05	1e-05	-6e-05	-1e-05	-1e-05	0
518	1e-05	0	5e-05	5e-05	1e-05	-6e-05	-1e-05	-1e-05	0
519	1e-05	0	5e-05	5e-05	1e-05	-6e-05	-1e-05	-1e-05	0
520	-1e-05	-3e-05	-3e-05	1e-05	2e-05	2e-05	-1e-05	-1e-05	0
521	-1e-05	-3e-05	-3e-05	1e-05	2e-05	2e-05	-1e-05	-1e-05	0
522	-1e-05	-3e-05	-3e-05	1e-05	2e-05	2e-05	-1e-05	-1e-05	0
523	-1e-05	-3e-05	-3e-05	1e-05	2e-05	2e-05	-1e-05	-1e-05	0
524	-1e-05	-3e-05	-3e-05	1e-05	2e-05	2e-05	-1e-05	-1e-05	0
525	-1e-05	-3e-05	-3e-05	1e-05	2e-05	2e-05	-1e-05	-1e-05	0
527	-1e-05	-3e-05	-3e-05	1e-05	2e-05	2e-05	-1e-05	-1e-05	0
529	-1e-05	-3e-05	-3e-05	1e-05	2e-05	2e-05	-1e-05	-1e-05	0
530	-1e-05	-3e-05	-3e-05	1e-05	2e-05	2e-05	-1e-05	-1e-05	0
531	-1e-05	-3e-05	-3e-05	1e-05	2e-05	2e-05	-1e-05	-1e-05	0
532	-1e-05	-3e-05	-3e-05	1e-05	2e-05	2e-05	-1e-05	-1e-05	0
533	-2e-05	-2e-05	-2e-05	2e-05	-5e-05	0	-2e-05	-2e-05	0
534	-3e-05	-2e-05	-5e-05	-0.0001	-3e-05	0	-1e-05	2e-05	0
535	-3e-05	-2e-05	-5e-05	-0.0001	-3e-05	0	-1e-05	2e-05	0
536	-3e-05	-2e-05	-5e-05	-0.0001	-3e-05	0	-1e-05	2e-05	0
539	-3e-05	-2e-05	-5e-05	-0.0001	-3e-05	0	-1e-05	2e-05	0
540	-3e-05	-2e-05	-5e-05	-0.0001	-3e-05	0	-1e-05	2e-05	0
541	-3e-05	-2e-05	-5e-05	-0.0001	-3e-05	0	-1e-05	2e-05	0
542	0	1e-05	2e-05	5e-05	-2e-05	-1e-05	-1e-05	-2e-05	0
543	0	1e-05	2e-05	5e-05	-2e-05	-1e-05	-1e-05	-2e-05	0
544	0	1e-05	2e-05	5e-05	-2e-05	-1e-05	-1e-05	-2e-05	0
545	0	1e-05	2e-05	5e-05	-2e-05	-1e-05	-1e-05	-2e-05	0
546	0	1e-05	2e-05	5e-05	-2e-05	-1e-05	-1e-05	-2e-05	0
547	0	1e-05	2e-05	5e-05	-2e-05	-1e-05	-1e-05	-2e-05	0
548	0	1e-05	2e-05	5e-05	-2e-05	-1e-05	-1e-05	-2e-05	0
549	0	1e-05	2e-05	5e-05	-2e-05	-1e-05	-1e-05	-2e-05	0
550	0	1e-05	2e-05	5e-05	-2e-05	-1e-05	-1e-05	-2e-05	0
551	0	1e-05	2e-05	5e-05	-2e-05	-1e-05	-1e-05	-2e-05	0
552	0	1e-05	2e-05	5e-05	-2e-05	-1e-05	-1e-05	-2e-05	0
553	0	1e-05	2e-05	5e-05	-2e-05	-1e-05	-1e-05	-2e-05	0
554	0	1e-05	2e-05	5e-05	-2e-05	-1e-05	-1e-05	-2e-05	0
555	0	1e-05	2e-05	5e-05	-2e-05	-1e-05	-1e-05	-2e-05	0
556	0	1e-05	2e-05	5e-05	-2e-05	-1e-05	-1e-05	-2e-05	0
557	-2e-05	-3e-05	-2e-05	-1e-05	1e-05	3e-05	0	-1e-05	0
558	-2e-05	-3e-05	-2e-05	-1e-05	1e-05	3e-05	0	-1e-05	0
559	-2e-05	-3e-05	-2e-05	-1e-05	1e-05	3e-05	0	-1e-05	0
560	-2e-05	-3e-05	-2e-05	-1e-05	1e-05	3e-05	0	-1e-05	0
561	-2e-05	-3e-05	-2e-05	-1e-05	1e-05	3e-05	0	-1e-05	0
562	-2e-05	-3e-05	-2e-05	-1e-05	1e-05	3e-05	0	-1e-05	0
563	-2e-05	-1e-05	2e-05	-6e-05	-3e-05	-1e-05	-2e-05	0	0
564	-2e-05	-1e-05	2e-05	-6e-05	-3e-05	-1e-05	-2e-05	0	0
565	-2e-05	-1e-05	2e-05	-6e-05	-3e-05	-1e-05	-2e-05	0	0
566	-2e-05	-1e-05	2e-05	-6e-05	-3e-05	-1e-05	-2e-05	0	0
567	-2e-05	-1e-05	2e-05	-6e-05	-3e-05	-1e-05	-2e-05	0	0
568	-2e-05	-1e-05	2e-05	-6e-05	-3e-05	-1e-05	-2e-05	0	0
569	-2e-05	-1e-05	2e-05	-6e-05	-3e-05	-1e-05	-2e-05	0	0
570	-2e-05	-1e-05	2e-05	-6e-05	-3e-05	-1e-05	-2e-05	0	0
571	-2e-05	-1e-05	2e-05	-6e-05	-3e-05	-1e-05	-2e-05	0	0
572	-2e-05	-1e-05	2e-05	-6e-05	-3e-05	-1e-05	-2e-05	0	0
573	-2e-05	-1e-05	2e-05	-6e-05	-3e-05	-1e-05	-2e-05	0	0
574	-2e-05	-1e-05	2e-05	-6e-05	-3e-05	-1e-05	-2e-05	0	0
575	-2e-05	-1e-05	2e-05	-6e-05	-3e-05	-1e-05	-2e-05	0	0
576	-2e-05	-1e-05	2e-05	-6e-05	-3e-05	-1e-05	-2e-05	0	0
577	-2e-05	-1e-05	2e-05	-6e-05	-3e-05	-1e-05	-2e-05	0	0
578	-2e-05	-1e-05	2e-05	-6e-05	-3e-05	-1e-05	-2e-05	0	0
579	-2e-05	-1e-05	2e-05	-6e-05	-3e-05	-1e-05	-2e-05	0	0
580	0	3e-05	4e-05	0.0001	1e-05	0	-4e-05	0	0
581	0	3e-05	4e-05	0.0001	1e-05	0	-4e-05	0	0
582	0	1e-05	-2e-05	-1e-05	0	-1e-05	-1e-05	-2e-05	0
583	0	1e-05	-2e-05	-1e-05	0	-1e-05	-1e-05	-2e-05	0
584	0	1e-05	-2e-05	-1e-05	0	-1e-05	-1e-05	-2e-05	0
585	0	1e-05	-2e-05	-1e-05	0	-1e-05	-1e-05	-2e-05	0
586	0	1e-05	-2e-05	-1e-05	0	-1e-05	-1e-05	-2e-05	0
588	0	1e-05	-2e-05	-1e-05	0	-1e-05	-1e-05	-2e-05	0
590	0	1e-05	-2e-05	-1e-05	0	-1e-05	-1e-05	-2e-05	0
591	0	1e-05	-2e-05	-1e-05	0	-1e-05	-1e-05	-2e-05	0
592	0	1e-05	-2e-05	-1e-05	0	-1e-05	-1e-05	-2e-05	0
593	-2e-05	-2e-05	-4e-05	-5e-05	-1e-05	-4e-05	-1e-05	-2e-05	0
594	0	-4e-05	-1e-05	-2e-05	0	6e-05	0	-2e-05	0
595	0	-4e-05	-1e-05	-2e-05	0	6e-05	0	-2e-05	0
596	0	-4e-05	-1e-05	-2e-05	0	6e-05	0	-2e-05	0
597	0	-4e-05	-1e-05	-2e-05	0	6e-05	0	-2e-05	0
598	0	-4e-05	-1e-05	-2e-05	0	6e-05	0	-2e-05	0
599	0	-4e-05	-1e-05	-2e-05	0	6e-05	0	-2e-05	0
600	0	-4e-05	-1e-05	-2e-05	0	6e-05	0	-2e-05	0
601	0	-4e-05	-1e-05	-2e-05	0	6e-05	0	-2e-05	0
602	2e-05	2e-05	2e-05	4e-05	-3e-05	-0.00015	-2e-05	-1e-05	0
603	2e-05	2e-05	2e-05	4e-05	-3e-05	-0.00015	-2e-05	-1e-05	0
604	2e-05	2e-05	2e-05	4e-05	-3e-05	-0.00015	-2e-05	-1e-05	0
605	2e-05	2e-05	2e-05	4e-05	-3e-05	-0.00015	-2e-05	-1e-05	0
606	2e-05	2e-05	2e-05	4e-05	-3e-05	-0.00015	-2e-05	-1e-05	0
607	2e-05	2e-05	2e-05	4e-05	-3e-05	-0.00015	-2e-05	-1e-05	0
608	2e-05	2e-05	2e-05	4e-05	-3e-05	-0.00015	-2e-05	-1e-05	0
609	2e-05	2e-05	2e-05	4e-05	-3e-05	-0.00015	-2e-05	-1e-05	0
610	2e-05	2e-05	2e-05	4e-05	-3e-05	-0.00015	-2e-05	-1e-05	0
611	2e-05	2e-05	2e-05	4e-05	-3e-05	-0.00015	-2e-05	-1e-05	0
612	2e-05	2e-05	2e-05	4e-05	-3e-05	-0.00015	-2e-05	-1e-05	0
613	2e-05	2e-05	2e-05	4e-05	-3e-05	-0.00015	-2e-05	-1e-05	0
614	2e-05	2e-05	2e-05	4e-05	-3e-05	-0.00015	-2e-05	-1e-05	0
615	2e-05	2e-05	2e-05	4e-05	-3e-05	-0.00015	-2e-05	-1e-05	0
616	2e-05	2e-05	2e-05	4e-05	-3e-05	-0.00015	-2e-05	-1e-05	0
617	-3e-05	-3e-05	-1e-05	2e-05	-1e-05	3e-05	1e-05	-1e-05	0
618	-3e-05	-3e-05	-1e-05	2e-05	-1e-05	3e-05	1e-05	-1e-05	0
619	-3e-05	-3e-05	-1e-05	2e-05	-1e-05	3e-05	1e-05	-1e-05	0
620	-3e-05	-3e-05	-1e-05	2e-05	-1e-05	3e-05	1e-05	-1e-05	0
621	-3e-05	-3e-05	-1e-05	2e-05	-1e-05	3e-05	1e-05	-1e-05	0
622	-3e-05	-3e-05	-1e-05	2e-05	-1e-05	3e-05	1e-05	-1e-05	0
623	-2e-05	-1e-05	0	-1e-05	2e-05	0	-3e-05	-2e-05	0
624	-2e-05	-1e-05	0	-1e-05	2e-05	0	-3e-05	-2e-05	0
625	-2e-05	-1e-05	0	-1e-05	2e-05	0	-3e-05	-2e-05	0
626	-2e-05	-1e-05	0	-1e-05	2e-05	0	-3e-05	-2e-05	0
627	-2e-05	-1e-05	0	-1e-05	2e-05	0	-3e-05	-2e-05	0
628	-2e-05	-1e-05	0	-1e-05	2e-05	0	-3e-05	-2e-05	0
629	-2e-05	-1e-05	0	-1e-05	2e-05	0	-3e-05	-2e-05	0
630	-2e-05	-1e-05	0	-1e-05	2e-05	0	-3e-05	-2e-05	0
631	1e-05	1e-05	-2e-05	-1e-05	-1e-05	1e-05	-1e-05	-1e-05	0
632	1e-05	1e-05	-2e-05	-1e-05	-1e-05	1e-05	-1e-05	-1e-05	0
633	1e-05	1e-05	-2e-05	-1e-05	-1e-05	1e-05	-1e-05	-1e-05	0
634	1e-05	1e-05	-2e-05	-1e-05	-1e-05	1e-05	-1e-05	-1e-05	0
635	1e-05	1e-05	-2e-05	-1e-05	-1e-05	1e-05	-1e-05	-1e-05	0
636	1e-05	1e-05	-2e-05	-1e-05	-1e-05	1e-05	-1e-05	-1e-05	0
639	1e-05	1e-05	-2e-05	-1e-05	-1e-05	1e-05	-1e-05	-1e-05	0
640	-1e-05	-1e-05	1e-05	0	-6e-05	-1e-05	-1e-05	-3e-05	0
641	-1e-05	-1e-05	1e-05	0	-6e-05	-1e-05	-1e-05	-3e-05	0
642	-1e-05	-1e-05	1e-05	0	-6e-05	-1e-05	-1e-05	-3e-05	0
643	-1e-05	-1e-05	1e-05	0	-6e-05	-1e-05	-1e-05	-3e-05	0
644	-1e-05	-1e-05	1e-05	0	-6e-05	-1e-05	-1e-05	-3e-05	0
645	-1e-05	-1e-05	1e-05	0	-6e-05	-1e-05	-1e-05	-3e-05	0
647	-1e-05	-1e-05	1e-05	0	-6e-05	-1e-05	-1e-05	-3e-05	0
648	-1e-05	-1e-05	1e-05	0	-6e-05	-1e-05	-1e-05	-3e-05	0
649	-1e-05	-1e-05	1e-05	0	-6e-05	-1e-05	-1e-05	-3e-05	0
650	-1e-05	-1e-05	1e-05	0	-6e-05	-1e-05	-1e-05	-3e-05	0
651	-1e-05	-1e-05	1e-05	0	-6e-05	-1e-05	-1e-05	-3e-05	0
652	-1e-05	-1e-05	1e-05	0	-6e-05	-1e-05	-1e-05	-3e-05	0
653	2e-05	0	2e-05	6e-05	2e-05	-4e-05	-2e-05	-1e-05	0
654	-2e-05	0	-1e-05	-0.00011	-2e-05	2e-05	2e-05	-2e-05	0
655	-2e-05	0	-1e-05	-0.00011	-2e-05	2e-05	2e-05	-2e-05	0
656	-2e-05	0	-1e-05	-0.00011	-2e-05	2e-05	2e-05	-2e-05	0
657	-2e-05	0	-1e-05	-0.00011	-2e-05	2e-05	2e-05	-2e-05	0
658	-2e-05	0	-1e-05	-0.00011	-2e-05	2e-05	2e-05	-2e-05	0
659	-2e-05	0	-1e-05	-0.00011	-2e-05	2e-05	2e-05	-2e-05	0
660	-2e-05	0	-1e-05	-0.00011	-2e-05	2e-05	2e-05	-2e-05	0
661	-2e-05	0	-1e-05	-0.00011	-2e-05	2e-05	2e-05	-2e-05	0
662	0	0	-2e-05	2e-05	4e-05	8e-05	-2e-05	0	0
663	0	0	-2e-05	2e-05	4e-05	8e-05	-2e-05	0	0
664	0	0	-2e-05	2e-05	4e-05	8e-05	-2e-05	0	0
665	0	0	-2e-05	2e-05	4e-05	8e-05	-2e-05	0	0
666	0	0	-2e-05	2e-05	4e-05	8e-05	-2e-05	0	0
667	0	0	-2e-05	2e-05	4e-05	8e-05	-2e-05	0	0
668	0	0	-2e-05	2e-05	4e-05	8e-05	-2e-05	0	0
669	0	0	-2e-05	2e-05	4e-05	8e-05	-2e-05	0	0
670	0	0	-2e-05	2e-05	4e-05	8e-05	-2e-05	0	0
671	0	0	-2e-05	2e-05	4e-05	8e-05	-2e-05	0	0
672	0	0	-2e-05	2e-05	4e-05	8e-05	-2e-05	0	0
673	0	0	-2e-05	2e-05	4e-05	8e-05	-2e-05	0	0
674	0	0	-2e-05	2e-05	4e-05	8e-05	-2e-05	0	0
675	0	0	-2e-05	2e-05	4e-05	8e-05	-2e-05	0	0
676	-1e-05	0	5e-05	4e-05	-2e-05	0	0	1e-05	0
677	-1e-05	-1e-05	-5e-05	-0.00013	-7e-05	-0.00011	0	-3e-05	0
678	-1e-05	-1e-05	-5e-05	-0.00013	-7e-05	-0.00011	0	-3e-05	0
679	-1e-05	-1e-05	-5e-05	-0.00013	-7e-05	-0.00011	0	-3e-05	0
680	-1e-05	-1e-05	-5e-05	-0.00013	-7e-05	-0.00011	0	-3e-05	0
681	-1e-05	-1e-05	-5e-05	-0.00013	-7e-05	-0.00011	0	-3e-05	0
682	-1e-05	-1e-05	-5e-05	-0.00013	-7e-05	-0.00011	0	-3e-05	0
683	-2e-05	-4e-05	-7e-05	-4e-05	1e-05	0	1e-05	0	0
684	-2e-05	-4e-05	-7e-05	-4e-05	1e-05	0	1e-05	0	0
685	-2e-05	-4e-05	-7e-05	-4e-05	1e-05	0	1e-05	0	0
687	-2e-05	-4e-05	-7e-05	-4e-05	1e-05	0	1e-05	0	0
690	-2e-05	-4e-05	-7e-05	-4e-05	1e-05	0	1e-05	0	0
691	0	2e-05	3e-05	7e-05	1e-05	1e-05	-2e-05	0	0
692	0	2e-05	3e-05	7e-05	1e-05	1e-05	-2e-05	0	0
693	0	2e-05	3e-05	7e-05	1e-05	1e-05	-2e-05	0	0
694	0	2e-05	3e-05	7e-05	1e-05	1e-05	-2e-05	0	0
695	0	2e-05	3e-05	7e-05	1e-05	1e-05	-2e-05	0	0
696	0	2e-05	3e-05	7e-05	1e-05	1e-05	-2e-05	0	0
697	0	2e-05	3e-05	7e-05	1e-05	1e-05	-2e-05	0	0
698	0	2e-05	3e-05	7e-05	1e-05	1e-05	-2e-05	0	0
699	0	2e-05	3e-05	7e-05	1e-05	1e-05	-2e-05	0	0
700	-1e-05	-3e-05	-2e-05	-5e-05	0	0	-2e-05	0	0
701	-1e-05	-3e-05	-2e-05	-5e-05	0	0	-2e-05	0	0
702	-1e-05	-3e-05	-2e-05	-5e-05	0	0	-2e-05	0	0
703	-1e-05	-3e-05	-2e-05	-5e-05	0	0	-2e-05	0	0
704	-1e-05	-3e-05	-2e-05	-5e-05	0	0	-2e-05	0	0
705	-1e-05	-3e-05	-2e-05	-5e-05	0	0	-2e-05	0	0
706	-1e-05	-3e-05	-2e-05	-5e-05	0	0	-2e-05	0	0
707	-1e-05	-3e-05	-2e-05	-5e-05	0	0	-2e-05	0	0
708	-1e-05	-3e-05	-2e-05	-5e-05	0	0	-2e-05	0	0
709	-1e-05	-3e-05	-2e-05	-5e-05	0	0	-2e-05	0	0
711	-1e-05	-3e-05	-2e-05	-5e-05	0	0	-2e-05	0	0
712	-1e-05	-3e-05	-2e-05	-5e-05	0	0	-2e-05	0	0
713	0	-1e-05	-1e-05	1e-05	-1e-05	-2e-05	0	0	0
714	0	-1e-05	-1e-05	1e-05	-1e-05	-2e-05	0	0	0
715	0	-1e-05	-1e-05	1e-05	-1e-05	-2e-05	0	0	0
716	0	-1e-05	-1e-05	1e-05	-1e-05	-2e-05	0	0	0
717	0	-1e-05	-1e-05	1e-05	-1e-05	-2e-05	0	0	0
718	0	-1e-05	-1e-05	1e-05	-1e-05	-2e-05	0	0	0
719	0	-1e-05	-1e-05	1e-05	-1e-05	-2e-05	0	0	0
720	0	-1e-05	-1e-05	1e-05	-1e-05	-2e-05	0	0	0
721	0	-1e-05	-1e-05	1e-05	-1e-05	-2e-05	0	0	0
722	0	-2e-05	-1e-05	0.00011	2e-05	-2e-05	-1e-05	-2e-05	0
723	0	-2e-05	-1e-05	0.00011	2e-05	-2e-05	-1e-05	-2e-05	0
724	0	-2e-05	-1e-05	0.00011	2e-05	-2e-05	-1e-05	-2e-05	0
725	0	-2e-05	-1e-05	0.00011	2e-05	-2e-05	-1e-05	-2e-05	0
726	0	-2e-05	-1e-05	0.00011	2e-05	-2e-05	-1e-05	-2e-05	0
727	0	-2e-05	-1e-05	0.00011	2e-05	-2e-05	-1e-05	-2e-05	0
728	0	-2e-05	-1e-05	0.00011	2e-05	-2e-05	-1e-05	-2e-05	0
729	0	-2e-05	-1e-05	0.00011	2e-05	-2e-05	-1e-05	-2e-05	0
730	0	-2e-05	-1e-05	0.00011	2e-05	-2e-05	-1e-05	-2e-05	0
731	0	-2e-05	-1e-05	0.00011	2e-05	-2e-05	-1e-05	-2e-05	0
732	0	-2e-05	-1e-05	0.00011	2e-05	-2e-05	-1e-05	-2e-05	0
733	0	-2e-05	-1e-05	0.00011	2e-05	-2e-05	-1e-05	-2e-05	0
734	0	-2e-05	-1e-05	0.00011	2e-05	-2e-05	-1e-05	-2e-05	0
735	0	-2e-05	-1e-05	0.00011	2e-05	-2e-05	-1e-05	-2e-05	0
736	-1e-05	-2e-05	-4e-05	-0.00011	-5e-05	0	-1e-05	-1e-05	0
738	-2e-05	-1e-05	1e-05	5e-05	2e-05	-7e-05	-1e-05	0	0
739	-2e-05	-1e-05	1e-05	5e-05	2e-05	-7e-05	-1e-05	0	0
740	-2e-05	-1e-05	1e-05	5e-05	2e-05	-7e-05	-1e-05	0	0
741	-2e-05	-1e-05	1e-05	5e-05	2e-05	-7e-05	-1e-05	0	0
742	-2e-05	-1e-05	1e-05	5e-05	2e-05	-7e-05	-1e-05	0	0
743	0	0	2e-05	9e-05	-4e-05	1e-05	-1e-05	-1e-05	0
744	-2e-05	-3e-05	-5e-05	-0.00017	0	8e-05	1e-05	-1e-05	0
745	-2e-05	-3e-05	-5e-05	-0.00017	0	8e-05	1e-05	-1e-05	0
746	-2e-05	-3e-05	-5e-05	-0.00017	0	8e-05	1e-05	-1e-05	0
747	-2e-05	-3e-05	-5e-05	-0.00017	0	8e-05	1e-05	-1e-05	0
748	-2e-05	-3e-05	-5e-05	-0.00017	0	8e-05	1e-05	-1e-05	0
749	-2e-05	-3e-05	-5e-05	-0.00017	0	8e-05	1e-05	-1e-05	0
750	-2e-05	-3e-05	-5e-05	-0.00017	0	8e-05	1e-05	-1e-05	0
751	-2e-05	-3e-05	-5e-05	-0.00017	0	8e-05	1e-05	-1e-05	0
752	-2e-05	-3e-05	-5e-05	-0.00017	0	8e-05	1e-05	-1e-05	0
753	-2e-05	-3e-05	-5e-05	-0.00017	0	8e-05	1e-05	-1e-05	0
754	-2e-05	-3e-05	-5e-05	-0.00017	0	8e-05	1e-05	-1e-05	0
755	-2e-05	-3e-05	-5e-05	-0.00017	0	8e-05	1e-05	-1e-05	0
756	-2e-05	-3e-05	-5e-05	-0.00017	0	8e-05	1e-05	-1e-05	0
757	-2e-05	-3e-05	-5e-05	-0.00017	0	8e-05	1e-05	-1e-05	0
758	-2e-05	-3e-05	-5e-05	-0.00017	0	8e-05	1e-05	-1e-05	0
759	1e-05	-1e-05	0	0	-1e-05	-6e-05	-1e-05	-2e-05	0
760	0	-5e-05	-5e-05	0	-1e-05	-4e-05	-4e-05	-1e-05	0
762	1e-05	0	5e-05	6e-05	-2e-05	-4e-05	2e-05	-1e-05	0
763	1e-05	0	5e-05	6e-05	-2e-05	-4e-05	2e-05	-1e-05	0
764	1e-05	0	5e-05	6e-05	-2e-05	-4e-05	2e-05	-1e-05	0
765	1e-05	0	5e-05	6e-05	-2e-05	-4e-05	2e-05	-1e-05	0
766	1e-05	0	5e-05	6e-05	-2e-05	-4e-05	2e-05	-1e-05	0
767	1e-05	0	5e-05	6e-05	-2e-05	-4e-05	2e-05	-1e-05	0
768	1e-05	0	5e-05	6e-05	-2e-05	-4e-05	2e-05	-1e-05	0
769	1e-05	0	5e-05	6e-05	-2e-05	-4e-05	2e-05	-1e-05	0
770	1e-05	0	5e-05	6e-05	-2e-05	-4e-05	2e-05	-1e-05	0
771	1e-05	0	5e-05	6e-05	-2e-05	-4e-05	2e-05	-1e-05	0
772	1e-05	0	5e-05	6e-05	-2e-05	-4e-05	2e-05	-1e-05	0
773	-1e-05	-3e-05	-4e-05	-3e-05	-1e-05	3e-05	0	-1e-05	0
774	-1e-05	-3e-05	-4e-05	-3e-05	-1e-05	3e-05	0	-1e-05	0
775	-1e-05	-3e-05	-4e-05	-3e-05	-1e-05	3e-05	0	-1e-05	0
776	-1e-05	-3e-05	-4e-05	-3e-05	-1e-05	3e-05	0	-1e-05	0
777	-1e-05	-3e-05	-4e-05	-3e-05	-1e-05	3e-05	0	-1e-05	0
778	-1e-05	-3e-05	-4e-05	-3e-05	-1e-05	3e-05	0	-1e-05	0
779	-1e-05	-3e-05	-4e-05	-3e-05	-1e-05	3e-05	0	-1e-05	0
780	-1e-05	-3e-05	-4e-05	-3e-05	-1e-05	3e-05	0	-1e-05	0
781	-1e-05	-3e-05	-4e-05	-3e-05	-1e-05	3e-05	0	-1e-05	0
782	-2e-05	-3e-05	-3e-05	-6e-05	-4e-05	-0.0001	-2e-05	0	0
783	-2e-05	-3e-05	-3e-05	-6e-05	-4e-05	-0.0001	-2e-05	0	0
784	-2e-05	-3e-05	-3e-05	-6e-05	-4e-05	-0.0001	-2e-05	0	0
785	-2e-05	-3e-05	-3e-05	-6e-05	-4e-05	-0.0001	-2e-05	0	0
786	-2e-05	-3e-05	-3e-05	-6e-05	-4e-05	-0.0001	-2e-05	0	0
788	-2e-05	-3e-05	-3e-05	-6e-05	-4e-05	-0.0001	-2e-05	0	0
789	-2e-05	-3e-05	-3e-05	-6e-05	-4e-05	-0.0001	-2e-05	0	0
790	-2e-05	-3e-05	-3e-05	-6e-05	-4e-05	-0.0001	-2e-05	0	0
791	-2e-05	-3e-05	-3e-05	-6e-05	-4e-05	-0.0001	-2e-05	0	0
792	-2e-05	-3e-05	-3e-05	-6e-05	-4e-05	-0.0001	-2e-05	0	0
793	-2e-05	-3e-05	-3e-05	-6e-05	-4e-05	-0.0001	-2e-05	0	0
794	-2e-05	-3e-05	-3e-05	-6e-05	-4e-05	-0.0001	-2e-05	0	0
795	-2e-05	-3e-05	-3e-05	-6e-05	-4e-05	-0.0001	-2e-05	0	0
796	0	1e-05	-1e-05	0	0	0.00013	1e-05	1e-05	0
797	0	0	2e-05	4e-05	-2e-05	-2e-05	-2e-05	-3e-05	0
798	0	0	2e-05	4e-05	-2e-05	-2e-05	-2e-05	-3e-05	0
799	0	0	2e-05	4e-05	-2e-05	-2e-05	-2e-05	-3e-05	0
800	0	0	2e-05	4e-05	-2e-05	-2e-05	-2e-05	-3e-05	0
801	0	0	2e-05	4e-05	-2e-05	-2e-05	-2e-05	-3e-05	0
802	0	0	2e-05	4e-05	-2e-05	-2e-05	-2e-05	-3e-05	0
803	0	0	1e-05	4e-05	0	-4e-05	0	0	0
804	0	0	1e-05	4e-05	0	-4e-05	0	0	0
805	0	0	1e-05	4e-05	0	-4e-05	0	0	0
806	0	0	1e-05	4e-05	0	-4e-05	0	0	0
807	0	0	1e-05	4e-05	0	-4e-05	0	0	0
808	0	0	1e-05	4e-05	0	-4e-05	0	0	0
809	0	0	1e-05	4e-05	0	-4e-05	0	0	0
810	0	0	1e-05	4e-05	0	-4e-05	0	0	0
811	0	0	1e-05	4e-05	0	-4e-05	0	0	0
812	0	0	1e-05	4e-05	0	-4e-05	0	0	0
813	0	0	1e-05	4e-05	0	-4e-05	0	0	0
814	0	0	1e-05	4e-05	0	-4e-05	0	0	0
815	0	0	1e-05	4e-05	0	-4e-05	0	0	0
816	0	0	1e-05	4e-05	0	-4e-05	0	0	0
817	0	0	1e-05	4e-05	0	-4e-05	0	0	0
818	0	0	1e-05	4e-05	0	-4e-05	0	0	0
819	0	0	1e-05	4e-05	0	-4e-05	0	0	0
820	0	0	1e-05	4e-05	0	-4e-05	0	0	0
821	0	0	1e-05	4e-05	0	-4e-05	0	0	0
822	0	0	1e-05	4e-05	0	-4e-05	0	0	0
823	0	0	1e-05	4e-05	0	-4e-05	0	0	0
824	0	0	1e-05	4e-05	0	-4e-05	0	0	0
825	0	0	1e-05	4e-05	0	-4e-05	0	0	0
826	0	0	1e-05	4e-05	0	-4e-05	0	0	0
827	-1e-05	0	3e-05	7e-05	2e-05	4e-05	1e-05	-1e-05	0
828	-1e-05	0	3e-05	7e-05	2e-05	4e-05	1e-05	-1e-05	0
829	-1e-05	-1e-05	-0.00012	-0.0003	-1e-05	1e-05	-1e-05	-1e-05	0
830	-1e-05	-1e-05	-0.00012	-0.0003	-1e-05	1e-05	-1e-05	-1e-05	0
831	-1e-05	-1e-05	-0.00012	-0.0003	-1e-05	1e-05	-1e-05	-1e-05	0
832	-1e-05	-1e-05	-0.00012	-0.0003	-1e-05	1e-05	-1e-05	-1e-05	0
833	-2e-05	1e-05	2e-05	-3e-05	0	0	-2e-05	2e-05	0
834	-2e-05	1e-05	2e-05	-3e-05	0	0	-2e-05	2e-05	0
835	-2e-05	1e-05	2e-05	-3e-05	0	0	-2e-05	2e-05	0
836	-2e-05	1e-05	2e-05	-3e-05	0	0	-2e-05	2e-05	0
838	-2e-05	1e-05	2e-05	-3e-05	0	0	-2e-05	2e-05	0
839	-2e-05	1e-05	2e-05	-3e-05	0	0	-2e-05	2e-05	0
840	-2e-05	1e-05	2e-05	-3e-05	0	0	-2e-05	2e-05	0
841	-2e-05	1e-05	2e-05	-3e-05	0	0	-2e-05	2e-05	0
842	-1e-05	-1e-05	2e-05	7e-05	-1e-05	2e-05	-1e-05	0	0
843	-1e-05	-1e-05	2e-05	7e-05	-1e-05	2e-05	-1e-05	0	0
844	-1e-05	-1e-05	2e-05	7e-05	-1e-05	2e-05	-1e-05	0	0
845	-1e-05	-1e-05	2e-05	7e-05	-1e-05	2e-05	-1e-05	0	0
846	-1e-05	-1e-05	2e-05	7e-05	-1e-05	2e-05	-1e-05	0	0
847	-1e-05	-1e-05	2e-05	7e-05	-1e-05	2e-05	-1e-05	0	0
848	-1e-05	-1e-05	2e-05	7e-05	-1e-05	2e-05	-1e-05	0	0
849	-1e-05	-1e-05	2e-05	7e-05	-1e-05	2e-05	-1e-05	0	0
850	-1e-05	-1e-05	2e-05	7e-05	-1e-05	2e-05	-1e-05	0	0
851	-1e-05	-1e-05	2e-05	7e-05	-1e-05	2e-05	-1e-05	0	0
852	-1e-05	-1e-05	2e-05	7e-05	-1e-05	2e-05	-1e-05	0	0
853	-1e-05	-1e-05	2e-05	7e-05	-1e-05	2e-05	-1e-05	0	0
854	-1e-05	-1e-05	2e-05	7e-05	-1e-05	2e-05	-1e-05	0	0
855	-1e-05	-1e-05	2e-05	7e-05	-1e-05	2e-05	-1e-05	0	0
856	0	-2e-05	-4e-05	-5e-05	0	-1e-05	-2e-05	0	0
857	-1e-05	0	2e-05	3e-05	-1e-05	1e-05	1e-05	1e-05	0
858	-1e-05	0	2e-05	3e-05	-1e-05	1e-05	1e-05	1e-05	0
859	-1e-05	0	2e-05	3e-05	-1e-05	1e-05	1e-05	1e-05	0
860	-1e-05	0	2e-05	3e-05	-1e-05	1e-05	1e-05	1e-05	0
861	-1e-05	0	2e-05	3e-05	-1e-05	1e-05	1e-05	1e-05	0
862	-1e-05	0	2e-05	3e-05	-1e-05	1e-05	1e-05	1e-05	0
863	0	0	-3e-05	-1e-05	-3e-05	0	-2e-05	-3e-05	0
864	0	0	-3e-05	-1e-05	-3e-05	0	-2e-05	-3e-05	0
865	0	0	-3e-05	-1e-05	-3e-05	0	-2e-05	-3e-05	0
866	0	0	-3e-05	-1e-05	-3e-05	0	-2e-05	-3e-05	0
867	0	0	-3e-05	-1e-05	-3e-05	0	-2e-05	-3e-05	0
868	0	0	-3e-05	-1e-05	-3e-05	0	-2e-05	-3e-05	0
869	0	0	-3e-05	-1e-05	-3e-05	0	-2e-05	-3e-05	0
870	0	0	-3e-05	-1e-05	-3e-05	0	-2e-05	-3e-05	0
871	0	0	-3e-05	-1e-05	-3e-05	0	-2e-05	-3e-05	0
872	0	0	-3e-05	-1e-05	-3e-05	0	-2e-05	-3e-05	0
873	0	0	-3e-05	-1e-05	-3e-05	0	-2e-05	-3e-05	0
874	0	0	-3e-05	-1e-05	-3e-05	0	-2e-05	-3e-05	0
875	0	0	-3e-05	-1e-05	-3e-05	0	-2e-05	-3e-05	0
876	0	0	-3e-05	-1e-05	-3e-05	0	-2e-05	-3e-05	0
877	0	0	-3e-05	-1e-05	-3e-05	0	-2e-05	-3e-05	0
878	0	0	-3e-05	-1e-05	-3e-05	0	-2e-05	-3e-05	0
879	0	0	-3e-05	-1e-05	-3e-05	0	-2e-05	-3e-05	0
880	-1e-05	-2e-05	-1e-05	-3e-05	-2e-05	1e-05	-2e-05	0	0
881	0	-1e-05	1e-05	1e-05	-4e-05	-4e-05	-1e-05	-1e-05	0
882	0	-1e-05	1e-05	1e-05	-4e-05	-4e-05	-1e-05	-1e-05	0
883	0	-1e-05	1e-05	1e-05	-4e-05	-4e-05	-1e-05	-1e-05	0
884	0	-1e-05	1e-05	1e-05	-4e-05	-4e-05	-1e-05	-1e-05	0
885	0	-1e-05	1e-05	1e-05	-4e-05	-4e-05	-1e-05	-1e-05	0
886	0	-1e-05	1e-05	1e-05	-4e-05	-4e-05	-1e-05	-1e-05	0
888	0	-1e-05	1e-05	1e-05	-4e-05	-4e-05	-1e-05	-1e-05	0
890	0	-1e-05	1e-05	1e-05	-4e-05	-4e-05	-1e-05	-1e-05	0
891	0	-1e-05	1e-05	1e-05	-4e-05	-4e-05	-1e-05	-1e-05	0
892	0	-1e-05	1e-05	1e-05	-4e-05	-4e-05	-1e-05	-1e-05	0
893	0	-1e-05	1e-05	1e-05	-4e-05	-4e-05	-1e-05	-1e-05	0
894	1e-05	0	-1e-05	-4e-05	-1e-05	0.00013	3e-05	-2e-05	0
895	1e-05	0	-1e-05	-4e-05	-1e-05	0.00013	3e-05	-2e-05	0
896	1e-05	0	-1e-05	-4e-05	-1e-05	0.00013	3e-05	-2e-05	0
897	1e-05	0	-1e-05	-4e-05	-1e-05	0.00013	3e-05	-2e-05	0
898	1e-05	0	-1e-05	-4e-05	-1e-05	0.00013	3e-05	-2e-05	0
899	1e-05	0	-1e-05	-4e-05	-1e-05	0.00013	3e-05	-2e-05	0
900	1e-05	0	-1e-05	-4e-05	-1e-05	0.00013	3e-05	-2e-05	0
901	-2e-05	-2e-05	0	2e-05	1e-05	-5e-05	-2e-05	-1e-05	0
902	-2e-05	-2e-05	0	2e-05	1e-05	-5e-05	-2e-05	-1e-05	0
903	-2e-05	-2e-05	0	2e-05	1e-05	-5e-05	-2e-05	-1e-05	0
904	-2e-05	-2e-05	0	2e-05	1e-05	-5e-05	-2e-05	-1e-05	0
905	-2e-05	-2e-05	0	2e-05	1e-05	-5e-05	-2e-05	-1e-05	0
906	-2e-05	-2e-05	0	2e-05	1e-05	-5e-05	-2e-05	-1e-05	0
907	-2e-05	-2e-05	0	2e-05	1e-05	-5e-05	-2e-05	-1e-05	0
908	-2e-05	-2e-05	0	2e-05	1e-05	-5e-05	-2e-05	-1e-05	0
909	-2e-05	-2e-05	0	2e-05	1e-05	-5e-05	-2e-05	-1e-05	0
910	-2e-05	-2e-05	0	2e-05	1e-05	-5e-05	-2e-05	-1e-05	0
911	-2e-05	-2e-05	0	2e-05	1e-05	-5e-05	-2e-05	-1e-05	0
912	-2e-05	-2e-05	0	2e-05	1e-05	-5e-05	-2e-05	-1e-05	0
913	-2e-05	-2e-05	0	2e-05	1e-05	-5e-05	-2e-05	-1e-05	0
914	-2e-05	-2e-05	0	2e-05	1e-05	-5e-05	-2e-05	-1e-05	0
915	-2e-05	-2e-05	0	2e-05	1e-05	-5e-05	-2e-05	-1e-05	0
916	-3e-05	0	0	6e-05	-1e-05	-2e-05	0	0	0
917	-1e-05	1e-05	-2e-05	-9e-05	-3e-05	4e-05	-3e-05	-2e-05	0
918	-1e-05	1e-05	-2e-05	-9e-05	-3e-05	4e-05	-3e-05	-2e-05	0
919	-1e-05	1e-05	-2e-05	-9e-05	-3e-05	4e-05	-3e-05	-2e-05	0
920	-1e-05	1e-05	-2e-05	-9e-05	-3e-05	4e-05	-3e-05	-2e-05	0
921	-1e-05	1e-05	-2e-05	-9e-05	-3e-05	4e-05	-3e-05	-2e-05	0
922	-1e-05	1e-05	-2e-05	-9e-05	-3e-05	4e-05	-3e-05	-2e-05	0
923	-1e-05	-1e-05	-3e-05	0	1e-05	1e-05	1e-05	1e-05	0
924	-1e-05	-1e-05	-3e-05	0	1e-05	1e-05	1e-05	1e-05	0
925	-1e-05	-1e-05	-3e-05	0	1e-05	1e-05	1e-05	1e-05	0
926	-1e-05	-1e-05	-3e-05	0	1e-05	1e-05	1e-05	1e-05	0
927	-1e-05	-1e-05	-3e-05	0	1e-05	1e-05	1e-05	1e-05	0
928	-1e-05	-1e-05	-3e-05	0	1e-05	1e-05	1e-05	1e-05	0
929	-1e-05	-1e-05	-3e-05	0	1e-05	1e-05	1e-05	1e-05	0
930	-1e-05	-1e-05	-3e-05	0	1e-05	1e-05	1e-05	1e-05	0
931	-1e-05	-1e-05	-3e-05	0	1e-05	1e-05	1e-05	1e-05	0
932	-1e-05	-1e-05	-3e-05	0	1e-05	1e-05	1e-05	1e-05	0
936	-1e-05	-1e-05	-3e-05	0	1e-05	1e-05	1e-05	1e-05	1
937	-1e-05	-1e-05	-3e-05	0	1e-05	1e-05	1e-05	1e-05	1
938	-1e-05	-1e-05	-3e-05	0	1e-05	1e-05	1e-05	1e-05	1
939	-1e-05	-1e-05	-3e-05	0	1e-05	1e-05	1e-05	1e-05	1
940	-1e-05	-1e-05	0	-2e-05	-2e-05	8e-05	0	-1e-05	1
941	-4e-05	-4e-05	-3e-05	-2e-05	-1e-05	-6e-05	-2e-05	-2e-05	1
942	-4e-05	-4e-05	-3e-05	-2e-05	-1e-05	-6e-05	-2e-05	-2e-05	1
943	-4e-05	-4e-05	-3e-05	-2e-05	-1e-05	-6e-05	-2e-05	-2e-05	1
944	-4e-05	-4e-05	-3e-05	-2e-05	-1e-05	-6e-05	-2e-05	-2e-05	1
945	-4e-05	-4e-05	-3e-05	-2e-05	-1e-05	-6e-05	-2e-05	-2e-05	1
946	-4e-05	-4e-05	-3e-05	-2e-05	-1e-05	-6e-05	-2e-05	-2e-05	1
947	-4e-05	-4e-05	-3e-05	-2e-05	-1e-05	-6e-05	-2e-05	-2e-05	1
948	-4e-05	-4e-05	-3e-05	-2e-05	-1e-05	-6e-05	-2e-05	-2e-05	1
949	-4e-05	-4e-05	-3e-05	-2e-05	-1e-05	-6e-05	-2e-05	-2e-05	1
950	-4e-05	-4e-05	-3e-05	-2e-05	-1e-05	-6e-05	-2e-05	-2e-05	1
951	-4e-05	-4e-05	-3e-05	-2e-05	-1e-05	-6e-05	-2e-05	-2e-05	1
952	-4e-05	-4e-05	-3e-05	-2e-05	-1e-05	-6e-05	-2e-05	-2e-05	1
953	-4e-05	-4e-05	-3e-05	-2e-05	-1e-05	-6e-05	-2e-05	-2e-05	1
954	-3e-05	-3e-05	-5e-05	-5e-05	-1e-05	-4e-05	-1e-05	-1e-05	1
955	-3e-05	-3e-05	-5e-05	-5e-05	-1e-05	-4e-05	-1e-05	-1e-05	1
956	-3e-05	-3e-05	-5e-05	-5e-05	-1e-05	-4e-05	-1e-05	-1e-05	1
957	-3e-05	-3e-05	-5e-05	-5e-05	-1e-05	-4e-05	-1e-05	-1e-05	1
958	-3e-05	-3e-05	-5e-05	-5e-05	-1e-05	-4e-05	-1e-05	-1e-05	1
959	-3e-05	-3e-05	-5e-05	-5e-05	-1e-05	-4e-05	-1e-05	-1e-05	1
960	-3e-05	-3e-05	-5e-05	-5e-05	-1e-05	-4e-05	-1e-05	-1e-05	1
961	-1e-05	0	3e-05	-2e-05	1e-05	1e-05	-1e-05	-2e-05	1
962	-1e-05	0	4e-05	0	-3e-05	1e-05	-1e-05	0	1
963	-1e-05	0	4e-05	0	-3e-05	1e-05	-1e-05	0	1
964	-1e-05	0	4e-05	0	-3e-05	1e-05	-1e-05	0	1
965	-1e-05	0	4e-05	0	-3e-05	1e-05	-1e-05	0	1
966	-1e-05	0	4e-05	0	-3e-05	1e-05	-1e-05	0	1
967	-1e-05	0	4e-05	0	-3e-05	1e-05	-1e-05	0	1
968	-1e-05	0	4e-05	0	-3e-05	1e-05	-1e-05	0	1
969	-1e-05	0	4e-05	0	-3e-05	1e-05	-1e-05	0	1
970	-1e-05	0	4e-05	0	-3e-05	1e-05	-1e-05	0	1
971	-1e-05	0	4e-05	0	-3e-05	1e-05	-1e-05	0	1
972	-1e-05	0	4e-05	0	-3e-05	1e-05	-1e-05	0	1
973	-1e-05	0	4e-05	0	-3e-05	1e-05	-1e-05	0	1
974	-1e-05	0	4e-05	0	-3e-05	1e-05	-1e-05	0	1
975	-1e-05	0	4e-05	0	-3e-05	1e-05	-1e-05	0	1
976	-1e-05	1e-05	3e-05	-2e-05	-3e-05	-9e-05	0	1e-05	1
977	-1e-05	0	-2e-05	2e-05	-1e-05	-5e-05	0	-1e-05	1
978	-1e-05	0	-2e-05	2e-05	-1e-05	-5e-05	0	-1e-05	1
979	-1e-05	0	-2e-05	2e-05	-1e-05	-5e-05	0	-1e-05	1
980	-1e-05	0	-2e-05	2e-05	-1e-05	-5e-05	0	-1e-05	1
981	-1e-05	0	-2e-05	2e-05	-1e-05	-5e-05	0	-1e-05	1
982	-1e-05	0	-2e-05	2e-05	-1e-05	-5e-05	0	-1e-05	1
983	-2e-05	-3e-05	-6e-05	-6e-05	-1e-05	2e-05	1e-05	-1e-05	1
984	-2e-05	-3e-05	-6e-05	-6e-05	-1e-05	2e-05	1e-05	-1e-05	1
985	-2e-05	-3e-05	-6e-05	-6e-05	-1e-05	2e-05	1e-05	-1e-05	1
986	-2e-05	-3e-05	-6e-05	-6e-05	-1e-05	2e-05	1e-05	-1e-05	1
988	-2e-05	-3e-05	-6e-05	-6e-05	-1e-05	2e-05	1e-05	-1e-05	1
989	-2e-05	-3e-05	-6e-05	-6e-05	-1e-05	2e-05	1e-05	-1e-05	1
990	-2e-05	-3e-05	-6e-05	-6e-05	-1e-05	2e-05	1e-05	-1e-05	1
991	-2e-05	-3e-05	-6e-05	-6e-05	-1e-05	2e-05	1e-05	-1e-05	1
992	-2e-05	-3e-05	-6e-05	-6e-05	-1e-05	2e-05	1e-05	-1e-05	1
993	-2e-05	-3e-05	-6e-05	-6e-05	-1e-05	2e-05	1e-05	-1e-05	1
994	-2e-05	-3e-05	-6e-05	-6e-05	-1e-05	2e-05	1e-05	-1e-05	1
995	-2e-05	-3e-05	-6e-05	-6e-05	-1e-05	2e-05	1e-05	-1e-05	1
996	-2e-05	-3e-05	-6e-05	-6e-05	-1e-05	2e-05	1e-05	-1e-05	1
997	-2e-05	-3e-05	-6e-05	-6e-05	-1e-05	2e-05	1e-05	-1e-05	1
998	-2e-05	-3e-05	-6e-05	-6e-05	-1e-05	2e-05	1e-05	-1e-05	1
999	1e-05	1e-05	1e-05	-0.00013	-1e-05	2e-05	0	-4e-05	1
1000	1e-05	2e-05	4e-05	0.00013	2e-05	-4e-05	-3e-05	1e-05	1
1001	-1e-05	-1e-05	-2e-05	3e-05	1e-05	5e-05	-1e-05	0	1
1002	-1e-05	-1e-05	-2e-05	3e-05	1e-05	5e-05	-1e-05	0	1
1003	-1e-05	-1e-05	-2e-05	3e-05	1e-05	5e-05	-1e-05	0	1
1004	-1e-05	-1e-05	-2e-05	3e-05	1e-05	5e-05	-1e-05	0	1
1005	-1e-05	-1e-05	-2e-05	3e-05	1e-05	5e-05	-1e-05	0	1
1006	-1e-05	-1e-05	-2e-05	3e-05	1e-05	5e-05	-1e-05	0	1
1008	-1e-05	-1e-05	-2e-05	3e-05	1e-05	5e-05	-1e-05	0	1
1009	-1e-05	-1e-05	-2e-05	3e-05	1e-05	5e-05	-1e-05	0	1
1019	-1e-05	-1e-05	-2e-05	3e-05	1e-05	5e-05	-1e-05	0	1
1020	-1e-05	-1e-05	-2e-05	3e-05	1e-05	5e-05	-1e-05	0	1
1021	-2e-05	0	-2e-05	-6e-05	-2e-05	3e-05	0	1e-05	1
1022	1e-05	-2e-05	2e-05	-1e-05	-2e-05	-9e-05	-1e-05	0	1
1024	1e-05	-2e-05	2e-05	-1e-05	-2e-05	-9e-05	-1e-05	0	1
1026	-2e-05	2e-05	-2e-05	4e-05	-2e-05	5e-05	-2e-05	-2e-05	1
1027	2e-05	1e-05	1e-05	2e-05	-1e-05	-4e-05	-3e-05	-3e-05	1
1028	2e-05	1e-05	1e-05	2e-05	-1e-05	-4e-05	-3e-05	-3e-05	1
1029	2e-05	1e-05	1e-05	2e-05	-1e-05	-4e-05	-3e-05	-3e-05	1
1030	2e-05	1e-05	1e-05	2e-05	-1e-05	-4e-05	-3e-05	-3e-05	1
1031	2e-05	1e-05	1e-05	2e-05	-1e-05	-4e-05	-3e-05	-3e-05	1
1032	2e-05	1e-05	1e-05	2e-05	-1e-05	-4e-05	-3e-05	-3e-05	1
1033	2e-05	1e-05	1e-05	2e-05	-1e-05	-4e-05	-3e-05	-3e-05	1
1034	2e-05	1e-05	1e-05	2e-05	-1e-05	-4e-05	-3e-05	-3e-05	1
1035	2e-05	1e-05	1e-05	2e-05	-1e-05	-4e-05	-3e-05	-3e-05	1
1036	2e-05	1e-05	1e-05	2e-05	-1e-05	-4e-05	-3e-05	-3e-05	1
1039	-2e-05	0	0	-3e-05	-1e-05	-2e-05	-1e-05	-2e-05	1
1040	-2e-05	0	0	-3e-05	-1e-05	-2e-05	-1e-05	-2e-05	1
1041	-2e-05	0	0	-3e-05	-1e-05	-2e-05	-1e-05	-2e-05	1
1042	-2e-05	0	0	-3e-05	-1e-05	-2e-05	-1e-05	-2e-05	1
1043	-2e-05	0	0	-3e-05	-1e-05	-2e-05	-1e-05	-2e-05	1
1045	-2e-05	0	0	-3e-05	-1e-05	-2e-05	-1e-05	-2e-05	1
1046	1e-05	2e-05	4e-05	1e-05	2e-05	-3e-05	0	-1e-05	1
1047	1e-05	2e-05	4e-05	1e-05	2e-05	-3e-05	0	-1e-05	1
1048	1e-05	2e-05	4e-05	1e-05	2e-05	-3e-05	0	-1e-05	1
1049	1e-05	2e-05	4e-05	1e-05	2e-05	-3e-05	0	-1e-05	1
1050	1e-05	2e-05	4e-05	1e-05	2e-05	-3e-05	0	-1e-05	1
1051	1e-05	2e-05	4e-05	1e-05	2e-05	-3e-05	0	-1e-05	1
1052	1e-05	2e-05	4e-05	1e-05	2e-05	-3e-05	0	-1e-05	1
1053	1e-05	2e-05	4e-05	1e-05	2e-05	-3e-05	0	-1e-05	1
1054	1e-05	2e-05	4e-05	1e-05	2e-05	-3e-05	0	-1e-05	1
1055	1e-05	2e-05	4e-05	1e-05	2e-05	-3e-05	0	-1e-05	1
1056	1e-05	2e-05	4e-05	1e-05	2e-05	-3e-05	0	-1e-05	1
1057	1e-05	2e-05	4e-05	1e-05	2e-05	-3e-05	0	-1e-05	1
1058	1e-05	2e-05	4e-05	1e-05	2e-05	-3e-05	0	-1e-05	1
1059	-2e-05	-2e-05	1e-05	-2e-05	0	1e-05	1e-05	0	1
1060	-2e-05	-2e-05	1e-05	-2e-05	0	1e-05	1e-05	0	1
1061	-1e-05	-1e-05	1e-05	-3e-05	-2e-05	-2e-05	-1e-05	-3e-05	1
1062	-1e-05	-1e-05	1e-05	-3e-05	-2e-05	-2e-05	-1e-05	-3e-05	1
1063	-1e-05	-1e-05	1e-05	-3e-05	-2e-05	-2e-05	-1e-05	-3e-05	1
1064	-1e-05	-1e-05	1e-05	-3e-05	-2e-05	-2e-05	-1e-05	-3e-05	1
1065	-1e-05	-1e-05	1e-05	-3e-05	-2e-05	-2e-05	-1e-05	-3e-05	1
1066	-1e-05	-1e-05	1e-05	-3e-05	-2e-05	-2e-05	-1e-05	-3e-05	1
1067	-1e-05	-1e-05	1e-05	-3e-05	-2e-05	-2e-05	-1e-05	-3e-05	1
1068	-1e-05	-1e-05	1e-05	-3e-05	-2e-05	-2e-05	-1e-05	-3e-05	1
1069	-1e-05	-1e-05	1e-05	-3e-05	-2e-05	-2e-05	-1e-05	-3e-05	1
1070	-1e-05	-1e-05	1e-05	-3e-05	-2e-05	-2e-05	-1e-05	-3e-05	1
1071	-1e-05	-1e-05	1e-05	-3e-05	-2e-05	-2e-05	-1e-05	-3e-05	1
1072	-1e-05	-1e-05	1e-05	-3e-05	-2e-05	-2e-05	-1e-05	-3e-05	1
1073	-1e-05	-1e-05	1e-05	-3e-05	-2e-05	-2e-05	-1e-05	-3e-05	1
1074	-1e-05	0	-3e-05	-3e-05	1e-05	2e-05	-1e-05	0	1
1075	-1e-05	0	-3e-05	-3e-05	1e-05	2e-05	-1e-05	0	1
1076	-1e-05	0	-3e-05	-3e-05	1e-05	2e-05	-1e-05	0	1
1077	-1e-05	0	-3e-05	-3e-05	1e-05	2e-05	-1e-05	0	1
1078	-1e-05	0	-3e-05	-3e-05	1e-05	2e-05	-1e-05	0	1
1079	-1e-05	0	-3e-05	-3e-05	1e-05	2e-05	-1e-05	0	1
1080	-1e-05	-1e-05	1e-05	0	1e-05	0.0001	3e-05	1e-05	1
1081	-1e-05	-1e-05	1e-05	0	1e-05	0.0001	3e-05	1e-05	1
1082	-1e-05	-1e-05	1e-05	0	1e-05	0.0001	3e-05	1e-05	1
1083	-1e-05	-1e-05	1e-05	0	1e-05	0.0001	3e-05	1e-05	1
1084	-1e-05	-1e-05	1e-05	0	1e-05	0.0001	3e-05	1e-05	1
1085	-1e-05	-1e-05	1e-05	0	1e-05	0.0001	3e-05	1e-05	1
1086	-1e-05	-1e-05	1e-05	0	1e-05	0.0001	3e-05	1e-05	1
1088	-1e-05	-1e-05	1e-05	0	1e-05	0.0001	3e-05	1e-05	1
1089	-1e-05	-1e-05	1e-05	0	1e-05	0.0001	3e-05	1e-05	1
1090	-1e-05	-1e-05	1e-05	0	1e-05	0.0001	3e-05	1e-05	1
1091	-1e-05	-1e-05	1e-05	0	1e-05	0.0001	3e-05	1e-05	1
1092	-1e-05	-1e-05	1e-05	0	1e-05	0.0001	3e-05	1e-05	1
1093	-1e-05	-1e-05	1e-05	0	1e-05	0.0001	3e-05	1e-05	1
1094	-1e-05	-1e-05	1e-05	0	1e-05	0.0001	3e-05	1e-05	1
1095	-1e-05	-1e-05	1e-05	0	1e-05	0.0001	3e-05	1e-05	1
1096	-1e-05	-1e-05	1e-05	0	1e-05	0.0001	3e-05	1e-05	1
1097	-1e-05	-1e-05	1e-05	0	1e-05	0.0001	3e-05	1e-05	1
1098	-1e-05	-1e-05	1e-05	0	1e-05	0.0001	3e-05	1e-05	1
1099	-1e-05	-1e-05	1e-05	0	1e-05	0.0001	3e-05	1e-05	1
1100	-1e-05	-1e-05	1e-05	0	1e-05	0.0001	3e-05	1e-05	1
1101	-1e-05	-1e-05	1e-05	0	1e-05	0.0001	3e-05	1e-05	1
1102	-1e-05	-1e-05	1e-05	0	1e-05	0.0001	3e-05	1e-05	1
1103	-1e-05	-1e-05	1e-05	0	1e-05	0.0001	3e-05	1e-05	1
1104	-3e-05	-5e-05	0	3e-05	-3e-05	-2e-05	-1e-05	-2e-05	1
1105	-3e-05	-5e-05	0	3e-05	-3e-05	-2e-05	-1e-05	-2e-05	1
1106	-3e-05	-2e-05	-4e-05	-4e-05	-3e-05	1e-05	0	-2e-05	1
1107	-3e-05	-2e-05	-4e-05	-4e-05	-3e-05	1e-05	0	-2e-05	1
1108	-3e-05	-2e-05	-4e-05	-4e-05	-3e-05	1e-05	0	-2e-05	1
1109	-3e-05	-2e-05	-4e-05	-4e-05	-3e-05	1e-05	0	-2e-05	1
1110	-3e-05	-2e-05	-4e-05	-4e-05	-3e-05	1e-05	0	-2e-05	1
1111	-3e-05	-2e-05	-4e-05	-4e-05	-3e-05	1e-05	0	-2e-05	1
1112	-3e-05	-2e-05	-4e-05	-4e-05	-3e-05	1e-05	0	-2e-05	1
1113	-3e-05	-2e-05	-4e-05	-4e-05	-3e-05	1e-05	0	-2e-05	1
1114	-3e-05	-2e-05	-4e-05	-4e-05	-3e-05	1e-05	0	-2e-05	1
1115	-3e-05	-2e-05	-4e-05	-4e-05	-3e-05	1e-05	0	-2e-05	1
1116	-3e-05	-2e-05	-4e-05	-4e-05	-3e-05	1e-05	0	-2e-05	1
1117	-3e-05	-2e-05	-4e-05	-4e-05	-3e-05	1e-05	0	-2e-05	1
1118	-3e-05	-2e-05	-4e-05	-4e-05	-3e-05	1e-05	0	-2e-05	1
1119	-3e-05	-2e-05	-4e-05	-4e-05	-3e-05	1e-05	0	-2e-05	1
1120	1e-05	-2e-05	-3e-05	-1e-05	0	-5e-05	0	-1e-05	1
1121	0	3e-05	3e-05	5e-05	1e-05	-8e-05	-3e-05	0	1
1122	0	3e-05	3e-05	5e-05	1e-05	-8e-05	-3e-05	0	1
1123	0	3e-05	3e-05	5e-05	1e-05	-8e-05	-3e-05	0	1
1124	0	3e-05	3e-05	5e-05	1e-05	-8e-05	-3e-05	0	1
1125	0	3e-05	3e-05	5e-05	1e-05	-8e-05	-3e-05	0	1
1126	0	3e-05	3e-05	5e-05	1e-05	-8e-05	-3e-05	0	1
1127	0	3e-05	3e-05	5e-05	1e-05	-8e-05	-3e-05	0	1
1128	0	3e-05	3e-05	5e-05	1e-05	-8e-05	-3e-05	0	1
1129	0	3e-05	3e-05	5e-05	1e-05	-8e-05	-3e-05	0	1
1130	0	3e-05	3e-05	5e-05	1e-05	-8e-05	-3e-05	0	1
1131	0	3e-05	3e-05	5e-05	1e-05	-8e-05	-3e-05	0	1
1132	0	3e-05	3e-05	5e-05	1e-05	-8e-05	-3e-05	0	1
1136	-2e-05	-4e-05	1e-05	2e-05	-2e-05	1e-05	-1e-05	-2e-05	1
1137	-2e-05	-4e-05	1e-05	2e-05	-2e-05	1e-05	-1e-05	-2e-05	1
1138	-2e-05	-4e-05	1e-05	2e-05	-2e-05	1e-05	-1e-05	-2e-05	1
1139	-2e-05	-4e-05	1e-05	2e-05	-2e-05	1e-05	-1e-05	-2e-05	1
1140	-2e-05	-4e-05	1e-05	2e-05	-2e-05	1e-05	-1e-05	-2e-05	1
1141	-2e-05	-4e-05	1e-05	2e-05	-2e-05	1e-05	-1e-05	-2e-05	1
1142	-2e-05	-4e-05	1e-05	2e-05	-2e-05	1e-05	-1e-05	-2e-05	1
1143	-2e-05	-3e-05	-8e-05	-0.0001	0	-1e-05	-1e-05	1e-05	1
1144	-2e-05	-3e-05	-8e-05	-0.0001	0	-1e-05	-1e-05	1e-05	1
1145	-2e-05	-3e-05	-8e-05	-0.0001	0	-1e-05	-1e-05	1e-05	1
1146	-2e-05	-3e-05	-8e-05	-0.0001	0	-1e-05	-1e-05	1e-05	1
1147	-2e-05	-3e-05	-8e-05	-0.0001	0	-1e-05	-1e-05	1e-05	1
1148	-2e-05	-3e-05	-8e-05	-0.0001	0	-1e-05	-1e-05	1e-05	1
1149	-2e-05	-3e-05	-8e-05	-0.0001	0	-1e-05	-1e-05	1e-05	1
1150	-2e-05	-3e-05	-8e-05	-0.0001	0	-1e-05	-1e-05	1e-05	1
1151	-2e-05	-3e-05	-8e-05	-0.0001	0	-1e-05	-1e-05	1e-05	1
1152	-2e-05	-3e-05	-8e-05	-0.0001	0	-1e-05	-1e-05	1e-05	1
1153	-2e-05	-3e-05	-8e-05	-0.0001	0	-1e-05	-1e-05	1e-05	1
1154	-2e-05	-3e-05	-8e-05	-0.0001	0	-1e-05	-1e-05	1e-05	1
1155	-2e-05	-3e-05	-8e-05	-0.0001	0	-1e-05	-1e-05	1e-05	1
1156	-2e-05	-3e-05	-8e-05	-0.0001	0	-1e-05	-1e-05	1e-05	1
1157	0	1e-05	-1e-05	0	0	-1e-05	2e-05	-1e-05	1
1159	0	1e-05	-1e-05	0	0	-1e-05	2e-05	-1e-05	1
1160	0	1e-05	-1e-05	0	0	-1e-05	2e-05	-1e-05	1
1161	0	1e-05	-1e-05	0	0	-1e-05	2e-05	-1e-05	1
1162	0	1e-05	-1e-05	0	0	-1e-05	2e-05	-1e-05	1
1163	0	-1e-05	0	6e-05	1e-05	3e-05	-1e-05	2e-05	1
1165	0	-1e-05	0	6e-05	1e-05	3e-05	-1e-05	2e-05	1
1166	0	-1e-05	0	6e-05	1e-05	3e-05	-1e-05	2e-05	1
1167	0	-1e-05	0	6e-05	1e-05	3e-05	-1e-05	2e-05	1
1168	0	-1e-05	0	6e-05	1e-05	3e-05	-1e-05	2e-05	1
1169	0	-1e-05	0	6e-05	1e-05	3e-05	-1e-05	2e-05	1
1170	0	-1e-05	0	6e-05	1e-05	3e-05	-1e-05	2e-05	1
1171	0	-1e-05	0	6e-05	1e-05	3e-05	-1e-05	2e-05	1
1172	0	-1e-05	0	6e-05	1e-05	3e-05	-1e-05	2e-05	1
1173	0	-1e-05	0	6e-05	1e-05	3e-05	-1e-05	2e-05	1
1174	0	-1e-05	0	6e-05	1e-05	3e-05	-1e-05	2e-05	1
1175	0	-1e-05	0	6e-05	1e-05	3e-05	-1e-05	2e-05	1
1176	0	-1e-05	0	6e-05	1e-05	3e-05	-1e-05	2e-05	1
1177	0	-1e-05	0	6e-05	1e-05	3e-05	-1e-05	2e-05	1
1178	0	-1e-05	0	6e-05	1e-05	3e-05	-1e-05	2e-05	1
1179	-1e-05	0	-3e-05	-3e-05	-1e-05	-3e-05	-3e-05	0	1
1180	-1e-05	0	-3e-05	-3e-05	-1e-05	-3e-05	-3e-05	0	1
1181	-1e-05	0	3e-05	4e-05	-2e-05	2e-05	-1e-05	-1e-05	1
1182	-1e-05	0	3e-05	4e-05	-2e-05	2e-05	-1e-05	-1e-05	1
1183	-1e-05	0	3e-05	4e-05	-2e-05	2e-05	-1e-05	-1e-05	1
1184	-1e-05	0	3e-05	4e-05	-2e-05	2e-05	-1e-05	-1e-05	1
1185	-1e-05	0	3e-05	4e-05	-2e-05	2e-05	-1e-05	-1e-05	1
1186	-1e-05	0	3e-05	4e-05	-2e-05	2e-05	-1e-05	-1e-05	1
1188	-1e-05	0	3e-05	4e-05	-2e-05	2e-05	-1e-05	-1e-05	1
1189	-1e-05	0	3e-05	4e-05	-2e-05	2e-05	-1e-05	-1e-05	1
1190	-1e-05	0	3e-05	4e-05	-2e-05	2e-05	-1e-05	-1e-05	1
1191	-1e-05	0	3e-05	4e-05	-2e-05	2e-05	-1e-05	-1e-05	1
1192	-1e-05	0	3e-05	4e-05	-2e-05	2e-05	-1e-05	-1e-05	1
1193	-1e-05	0	3e-05	4e-05	-2e-05	2e-05	-1e-05	-1e-05	1
1194	-1e-05	1e-05	-3e-05	-1e-05	0	-3e-05	0	-1e-05	1
1195	-1e-05	1e-05	-3e-05	-1e-05	0	-3e-05	0	-1e-05	1
1196	-1e-05	1e-05	-3e-05	-1e-05	0	-3e-05	0	-1e-05	1
1197	-1e-05	1e-05	-3e-05	-1e-05	0	-3e-05	0	-1e-05	1
1198	-1e-05	1e-05	-3e-05	-1e-05	0	-3e-05	0	-1e-05	1
1199	-1e-05	1e-05	-3e-05	-1e-05	0	-3e-05	0	-1e-05	1
1200	-1e-05	1e-05	-3e-05	-1e-05	0	-3e-05	0	-1e-05	1
1201	1e-05	0	2e-05	2e-05	-3e-05	-2e-05	0	0	1
1202	1e-05	0	2e-05	2e-05	-3e-05	-2e-05	0	0	1
1203	1e-05	0	2e-05	2e-05	-3e-05	-2e-05	0	0	1
1204	1e-05	0	2e-05	2e-05	-3e-05	-2e-05	0	0	1
1205	1e-05	0	2e-05	2e-05	-3e-05	-2e-05	0	0	1
1206	1e-05	0	2e-05	2e-05	-3e-05	-2e-05	0	0	1
1207	1e-05	0	2e-05	2e-05	-3e-05	-2e-05	0	0	1
1208	1e-05	0	2e-05	2e-05	-3e-05	-2e-05	0	0	1
1209	1e-05	0	2e-05	2e-05	-3e-05	-2e-05	0	0	1
1210	1e-05	0	2e-05	2e-05	-3e-05	-2e-05	0	0	1
1211	1e-05	0	2e-05	2e-05	-3e-05	-2e-05	0	0	1
1212	1e-05	0	2e-05	2e-05	-3e-05	-2e-05	0	0	1
1213	1e-05	0	2e-05	2e-05	-3e-05	-2e-05	0	0	1
1214	1e-05	0	2e-05	2e-05	-3e-05	-2e-05	0	0	1
1215	1e-05	0	2e-05	2e-05	-3e-05	-2e-05	0	0	1
1216	1e-05	-1e-05	-3e-05	-1e-05	-4e-05	4e-05	-1e-05	0	1
1217	1e-05	-1e-05	-3e-05	-1e-05	-4e-05	4e-05	-1e-05	0	1
1218	1e-05	-1e-05	-3e-05	-1e-05	-4e-05	4e-05	-1e-05	0	1
1219	1e-05	-1e-05	-3e-05	-1e-05	-4e-05	4e-05	-1e-05	0	1
1220	1e-05	-1e-05	-3e-05	-1e-05	-4e-05	4e-05	-1e-05	0	1
1221	1e-05	-1e-05	-3e-05	-1e-05	-4e-05	4e-05	-1e-05	0	1
1222	1e-05	-1e-05	-3e-05	-1e-05	-4e-05	4e-05	-1e-05	0	1
1223	0	-1e-05	1e-05	-2e-05	4e-05	-1e-05	-1e-05	0	1
1224	0	-1e-05	1e-05	-2e-05	4e-05	-1e-05	-1e-05	0	1
1225	0	-1e-05	1e-05	-2e-05	4e-05	-1e-05	-1e-05	0	1
1226	0	-1e-05	1e-05	-2e-05	4e-05	-1e-05	-1e-05	0	1
1227	0	-1e-05	1e-05	-2e-05	4e-05	-1e-05	-1e-05	0	1
1228	0	-1e-05	1e-05	-2e-05	4e-05	-1e-05	-1e-05	0	1
1229	0	-1e-05	1e-05	-2e-05	4e-05	-1e-05	-1e-05	0	1
1230	0	-1e-05	1e-05	-2e-05	4e-05	-1e-05	-1e-05	0	1
1231	0	-1e-05	1e-05	-2e-05	4e-05	-1e-05	-1e-05	0	1
1232	0	-1e-05	1e-05	-2e-05	4e-05	-1e-05	-1e-05	0	1
1233	0	-1e-05	1e-05	-2e-05	4e-05	-1e-05	-1e-05	0	1
1234	0	-1e-05	1e-05	-2e-05	4e-05	-1e-05	-1e-05	0	1
1235	0	-1e-05	1e-05	-2e-05	4e-05	-1e-05	-1e-05	0	1
1236	0	-1e-05	1e-05	-2e-05	4e-05	-1e-05	-1e-05	0	1
1238	0	-1e-05	1e-05	-2e-05	4e-05	-1e-05	-1e-05	0	1
1239	-2e-05	-1e-05	3e-05	-1e-05	0	-7e-05	-1e-05	0	1
1240	-2e-05	-1e-05	1e-05	3e-05	0	-3e-05	0	-1e-05	1
1241	0	-2e-05	-2e-05	1e-05	-5e-05	7e-05	0	-1e-05	1
1242	0	-2e-05	-2e-05	1e-05	-5e-05	7e-05	0	-1e-05	1
1243	0	-2e-05	-2e-05	1e-05	-5e-05	7e-05	0	-1e-05	1
1244	0	-2e-05	-2e-05	1e-05	-5e-05	7e-05	0	-1e-05	1
1245	0	-2e-05	-2e-05	1e-05	-5e-05	7e-05	0	-1e-05	1
1246	0	-2e-05	-2e-05	1e-05	-5e-05	7e-05	0	-1e-05	1
1247	0	-2e-05	-2e-05	1e-05	-5e-05	7e-05	0	-1e-05	1
1248	0	-2e-05	-2e-05	1e-05	-5e-05	7e-05	0	-1e-05	1
1249	0	-2e-05	-2e-05	1e-05	-5e-05	7e-05	0	-1e-05	1
1250	0	-2e-05	-2e-05	1e-05	-5e-05	7e-05	0	-1e-05	1
1251	0	-2e-05	-2e-05	1e-05	-5e-05	7e-05	0	-1e-05	1
1252	0	-2e-05	-2e-05	1e-05	-5e-05	7e-05	0	-1e-05	1
1253	-2e-05	-1e-05	-5e-05	-0.0001	-2e-05	-0.00015	-2e-05	-1e-05	1
1254	0	-5e-05	-2e-05	8e-05	1e-05	2e-05	0	-1e-05	1
1255	0	-5e-05	-2e-05	8e-05	1e-05	2e-05	0	-1e-05	1
1256	0	-5e-05	-2e-05	8e-05	1e-05	2e-05	0	-1e-05	1
1257	0	-5e-05	-2e-05	8e-05	1e-05	2e-05	0	-1e-05	1
1258	0	-5e-05	-2e-05	8e-05	1e-05	2e-05	0	-1e-05	1
1259	0	-5e-05	-2e-05	8e-05	1e-05	2e-05	0	-1e-05	1
1260	0	-5e-05	-2e-05	8e-05	1e-05	2e-05	0	-1e-05	1
1261	0	-5e-05	-2e-05	8e-05	1e-05	2e-05	0	-1e-05	1
1262	0	-5e-05	-2e-05	8e-05	1e-05	2e-05	0	-1e-05	1
1263	-1e-05	-4e-05	-9e-05	-4e-05	-1e-05	-2e-05	-1e-05	-2e-05	1
1264	-1e-05	-4e-05	-9e-05	-4e-05	-1e-05	-2e-05	-1e-05	-2e-05	1
1265	-1e-05	-4e-05	-9e-05	-4e-05	-1e-05	-2e-05	-1e-05	-2e-05	1
1266	-1e-05	-4e-05	-9e-05	-4e-05	-1e-05	-2e-05	-1e-05	-2e-05	1
1267	-1e-05	-4e-05	-9e-05	-4e-05	-1e-05	-2e-05	-1e-05	-2e-05	1
1268	-1e-05	-4e-05	-9e-05	-4e-05	-1e-05	-2e-05	-1e-05	-2e-05	1
1269	-1e-05	-4e-05	-9e-05	-4e-05	-1e-05	-2e-05	-1e-05	-2e-05	1
1270	-1e-05	-4e-05	-9e-05	-4e-05	-1e-05	-2e-05	-1e-05	-2e-05	1
1271	-1e-05	-4e-05	-9e-05	-4e-05	-1e-05	-2e-05	-1e-05	-2e-05	1
1272	-1e-05	-4e-05	-9e-05	-4e-05	-1e-05	-2e-05	-1e-05	-2e-05	1
1273	-1e-05	-4e-05	-9e-05	-4e-05	-1e-05	-2e-05	-1e-05	-2e-05	1
1274	-1e-05	-4e-05	-9e-05	-4e-05	-1e-05	-2e-05	-1e-05	-2e-05	1
1275	-1e-05	-4e-05	-9e-05	-4e-05	-1e-05	-2e-05	-1e-05	-2e-05	1
1276	-1e-05	-1e-05	-2e-05	-7e-05	-1e-05	-2e-05	-2e-05	-1e-05	1
1277	-1e-05	-1e-05	-2e-05	-7e-05	-1e-05	-2e-05	-2e-05	-1e-05	1
1278	-1e-05	-1e-05	-2e-05	-7e-05	-1e-05	-2e-05	-2e-05	-1e-05	1
1279	-1e-05	-1e-05	-2e-05	-7e-05	-1e-05	-2e-05	-2e-05	-1e-05	1
1280	-1e-05	-1e-05	-2e-05	-7e-05	-1e-05	-2e-05	-2e-05	-1e-05	1
1281	-1e-05	-1e-05	-2e-05	-7e-05	-1e-05	-2e-05	-2e-05	-1e-05	1
1282	-1e-05	-1e-05	-2e-05	-7e-05	-1e-05	-2e-05	-2e-05	-1e-05	1
1283	0	-3e-05	1e-05	-6e-05	-5e-05	-5e-05	-1e-05	-2e-05	1
1284	0	-3e-05	1e-05	-6e-05	-5e-05	-5e-05	-1e-05	-2e-05	1
1285	0	-3e-05	1e-05	-6e-05	-5e-05	-5e-05	-1e-05	-2e-05	1
1286	0	-3e-05	1e-05	-6e-05	-5e-05	-5e-05	-1e-05	-2e-05	1
1288	0	-3e-05	1e-05	-6e-05	-5e-05	-5e-05	-1e-05	-2e-05	1
1289	0	-3e-05	1e-05	-6e-05	-5e-05	-5e-05	-1e-05	-2e-05	1
1290	0	-3e-05	1e-05	-6e-05	-5e-05	-5e-05	-1e-05	-2e-05	1
1291	0	-3e-05	1e-05	-6e-05	-5e-05	-5e-05	-1e-05	-2e-05	1
1292	0	-3e-05	1e-05	-6e-05	-5e-05	-5e-05	-1e-05	-2e-05	1
1293	0	-3e-05	1e-05	-6e-05	-5e-05	-5e-05	-1e-05	-2e-05	1
1294	0	-3e-05	1e-05	-6e-05	-5e-05	-5e-05	-1e-05	-2e-05	1
1295	0	-3e-05	1e-05	-6e-05	-5e-05	-5e-05	-1e-05	-2e-05	1
1296	0	-3e-05	1e-05	-6e-05	-5e-05	-5e-05	-1e-05	-2e-05	1
1297	0	-3e-05	1e-05	-6e-05	-5e-05	-5e-05	-1e-05	-2e-05	1
1298	0	-3e-05	1e-05	-6e-05	-5e-05	-5e-05	-1e-05	-2e-05	1
1299	-1e-05	-3e-05	-4e-05	-4e-05	0	0	3e-05	-1e-05	1
1300	-1e-05	-3e-05	-4e-05	-4e-05	0	0	3e-05	-1e-05	1
1301	-2e-05	3e-05	3e-05	0.00018	-1e-05	-6e-05	-2e-05	-3e-05	1
1302	-2e-05	3e-05	3e-05	0.00018	-1e-05	-6e-05	-2e-05	-3e-05	1
1303	-2e-05	3e-05	3e-05	0.00018	-1e-05	-6e-05	-2e-05	-3e-05	1
1304	-2e-05	3e-05	3e-05	0.00018	-1e-05	-6e-05	-2e-05	-3e-05	1
1305	-2e-05	3e-05	3e-05	0.00018	-1e-05	-6e-05	-2e-05	-3e-05	1
1306	-2e-05	3e-05	3e-05	0.00018	-1e-05	-6e-05	-2e-05	-3e-05	1
1307	-2e-05	3e-05	3e-05	0.00018	-1e-05	-6e-05	-2e-05	-3e-05	1
1308	-2e-05	3e-05	3e-05	0.00018	-1e-05	-6e-05	-2e-05	-3e-05	1
1309	-2e-05	3e-05	3e-05	0.00018	-1e-05	-6e-05	-2e-05	-3e-05	1
1310	-2e-05	3e-05	3e-05	0.00018	-1e-05	-6e-05	-2e-05	-3e-05	1
1311	-2e-05	3e-05	3e-05	0.00018	-1e-05	-6e-05	-2e-05	-3e-05	1
1312	-2e-05	3e-05	3e-05	0.00018	-1e-05	-6e-05	-2e-05	-3e-05	1
1313	-2e-05	3e-05	3e-05	0.00018	-1e-05	-6e-05	-2e-05	-3e-05	1
1314	-2e-05	3e-05	3e-05	0.00018	-1e-05	-6e-05	-2e-05	-3e-05	1
1315	-2e-05	3e-05	3e-05	0.00018	-1e-05	-6e-05	-2e-05	-3e-05	1
1316	-2e-05	3e-05	3e-05	0.00018	-1e-05	-6e-05	-2e-05	-3e-05	1
1317	-2e-05	3e-05	3e-05	0.00018	-1e-05	-6e-05	-2e-05	-3e-05	1
1318	-2e-05	3e-05	3e-05	0.00018	-1e-05	-6e-05	-2e-05	-3e-05	1
1319	-2e-05	3e-05	3e-05	0.00018	-1e-05	-6e-05	-2e-05	-3e-05	1
1320	-2e-05	3e-05	3e-05	0.00018	-1e-05	-6e-05	-2e-05	-3e-05	1
1321	-2e-05	3e-05	3e-05	0.00018	-1e-05	-6e-05	-2e-05	-3e-05	1
1322	-1e-05	4e-05	-1e-05	5e-05	-3e-05	-5e-05	-2e-05	-1e-05	1
1323	0	1e-05	-4e-05	-0.00011	-2e-05	0	-2e-05	-1e-05	1
1324	-2e-05	-3e-05	-0.0001	-0.0001	-2e-05	-5e-05	0	0	1
1325	-2e-05	-3e-05	-0.0001	-0.0001	-2e-05	-5e-05	0	0	1
1326	-2e-05	-3e-05	-0.0001	-0.0001	-2e-05	-5e-05	0	0	1
1327	-2e-05	-3e-05	-0.0001	-0.0001	-2e-05	-5e-05	0	0	1
1328	-2e-05	-3e-05	-0.0001	-0.0001	-2e-05	-5e-05	0	0	1
1329	-2e-05	-3e-05	-0.0001	-0.0001	-2e-05	-5e-05	0	0	1
1330	-2e-05	-3e-05	-0.0001	-0.0001	-2e-05	-5e-05	0	0	1
1331	-2e-05	-3e-05	-0.0001	-0.0001	-2e-05	-5e-05	0	0	1
1332	-2e-05	-3e-05	-0.0001	-0.0001	-2e-05	-5e-05	0	0	1
1333	-2e-05	-3e-05	-0.0001	-0.0001	-2e-05	-5e-05	0	0	1
1334	-2e-05	-3e-05	-0.0001	-0.0001	-2e-05	-5e-05	0	0	1
1335	-2e-05	-3e-05	-0.0001	-0.0001	-2e-05	-5e-05	0	0	1
1336	1e-05	-1e-05	3e-05	6e-05	1e-05	6e-05	0	1e-05	1
1338	0	-2e-05	0	-3e-05	-3e-05	-0.00012	1e-05	2e-05	1
1339	0	-2e-05	0	-3e-05	-3e-05	-0.00012	1e-05	2e-05	1
1340	0	-2e-05	0	-3e-05	-3e-05	-0.00012	1e-05	2e-05	1
1341	0	-2e-05	0	-3e-05	-3e-05	-0.00012	1e-05	2e-05	1
1342	0	-2e-05	0	-3e-05	-3e-05	-0.00012	1e-05	2e-05	1
1343	-2e-05	-1e-05	0	-1e-05	1e-05	0	-1e-05	0	1
1344	-2e-05	-1e-05	0	-1e-05	1e-05	0	-1e-05	0	1
1345	-2e-05	-1e-05	0	-1e-05	1e-05	0	-1e-05	0	1
1346	-2e-05	-1e-05	0	-1e-05	1e-05	0	-1e-05	0	1
1347	-2e-05	-1e-05	0	-1e-05	1e-05	0	-1e-05	0	1
1348	-2e-05	-1e-05	0	-1e-05	1e-05	0	-1e-05	0	1
1349	-2e-05	-1e-05	0	-1e-05	1e-05	0	-1e-05	0	1
1350	-2e-05	-1e-05	0	-1e-05	1e-05	0	-1e-05	0	1
1351	-2e-05	-1e-05	0	-1e-05	1e-05	0	-1e-05	0	1
1352	-2e-05	-1e-05	0	-1e-05	1e-05	0	-1e-05	0	1
1353	-2e-05	-1e-05	0	-1e-05	1e-05	0	-1e-05	0	1
1354	-2e-05	-1e-05	0	-1e-05	1e-05	0	-1e-05	0	1
1355	-2e-05	-1e-05	0	-1e-05	1e-05	0	-1e-05	0	1
1356	-2e-05	-1e-05	0	-1e-05	1e-05	0	-1e-05	0	1
1357	-2e-05	-1e-05	0	-1e-05	1e-05	0	-1e-05	0	1
1358	-2e-05	-1e-05	0	-1e-05	1e-05	0	-1e-05	0	1
1359	-1e-05	-3e-05	-0.0001	-0.00022	-4e-05	-6e-05	-3e-05	-2e-05	1
1360	-1e-05	-3e-05	-0.0001	-0.00022	-4e-05	-6e-05	-3e-05	-2e-05	1
1361	0	2e-05	-1e-05	-3e-05	1e-05	-0.0001	-2e-05	0	1
1362	0	2e-05	-1e-05	-3e-05	1e-05	-0.0001	-2e-05	0	1
1363	0	2e-05	-1e-05	-3e-05	1e-05	-0.0001	-2e-05	0	1
1364	0	2e-05	-1e-05	-3e-05	1e-05	-0.0001	-2e-05	0	1
1365	0	2e-05	-1e-05	-3e-05	1e-05	-0.0001	-2e-05	0	1
1366	0	2e-05	-1e-05	-3e-05	1e-05	-0.0001	-2e-05	0	1
1367	0	2e-05	-1e-05	-3e-05	1e-05	-0.0001	-2e-05	0	1
1368	0	2e-05	-1e-05	-3e-05	1e-05	-0.0001	-2e-05	0	1
1369	0	2e-05	-1e-05	-3e-05	1e-05	-0.0001	-2e-05	0	1
1370	0	2e-05	-1e-05	-3e-05	1e-05	-0.0001	-2e-05	0	1
1371	0	2e-05	-1e-05	-3e-05	1e-05	-0.0001	-2e-05	0	1
1372	0	2e-05	-1e-05	-3e-05	1e-05	-0.0001	-2e-05	0	1
1373	0	2e-05	-1e-05	-3e-05	1e-05	-0.0001	-2e-05	0	1
1374	0	2e-05	-1e-05	-3e-05	1e-05	-0.0001	-2e-05	0	1
1375	0	2e-05	-1e-05	-3e-05	1e-05	-0.0001	-2e-05	0	1
1376	0	2e-05	-1e-05	-3e-05	1e-05	-0.0001	-2e-05	0	1
1377	0	2e-05	-1e-05	-3e-05	1e-05	-0.0001	-2e-05	0	1
1378	0	2e-05	-1e-05	-3e-05	1e-05	-0.0001	-2e-05	0	1
1379	0	2e-05	-1e-05	-3e-05	1e-05	-0.0001	-2e-05	0	1
1380	0	2e-05	-1e-05	-3e-05	1e-05	-0.0001	-2e-05	0	1
1381	0	2e-05	-1e-05	-3e-05	1e-05	-0.0001	-2e-05	0	1
1382	-1e-05	-1e-05	1e-05	2e-05	3e-05	-2e-05	-3e-05	-3e-05	1
1383	0	-2e-05	-3e-05	1e-05	-2e-05	-2e-05	0	-2e-05	1
1384	0	2e-05	2e-05	6e-05	1e-05	-2e-05	-1e-05	-2e-05	1
1385	0	2e-05	2e-05	6e-05	1e-05	-2e-05	-1e-05	-2e-05	1
1386	0	2e-05	2e-05	6e-05	1e-05	-2e-05	-1e-05	-2e-05	1
1388	0	2e-05	2e-05	6e-05	1e-05	-2e-05	-1e-05	-2e-05	1
1389	0	2e-05	2e-05	6e-05	1e-05	-2e-05	-1e-05	-2e-05	1
1390	0	2e-05	2e-05	6e-05	1e-05	-2e-05	-1e-05	-2e-05	1
1391	0	2e-05	2e-05	6e-05	1e-05	-2e-05	-1e-05	-2e-05	1
1392	0	2e-05	2e-05	6e-05	1e-05	-2e-05	-1e-05	-2e-05	1
1393	0	2e-05	2e-05	6e-05	1e-05	-2e-05	-1e-05	-2e-05	1
1394	0	2e-05	2e-05	6e-05	1e-05	-2e-05	-1e-05	-2e-05	1
1395	0	2e-05	2e-05	6e-05	1e-05	-2e-05	-1e-05	-2e-05	1
1396	-1e-05	-1e-05	4e-05	1e-05	-1e-05	1e-05	0	1e-05	1
1397	-1e-05	-1e-05	4e-05	1e-05	-1e-05	1e-05	0	1e-05	1
1398	-1e-05	-1e-05	4e-05	1e-05	-1e-05	1e-05	0	1e-05	1
1399	-1e-05	-1e-05	4e-05	1e-05	-1e-05	1e-05	0	1e-05	1
1400	-1e-05	-1e-05	4e-05	1e-05	-1e-05	1e-05	0	1e-05	1
1401	-1e-05	-1e-05	4e-05	1e-05	-1e-05	1e-05	0	1e-05	1
1402	-1e-05	-1e-05	4e-05	1e-05	-1e-05	1e-05	0	1e-05	1
1403	-1e-05	-1e-05	4e-05	1e-05	-1e-05	1e-05	0	1e-05	1
1404	-1e-05	-1e-05	4e-05	1e-05	-1e-05	1e-05	0	1e-05	1
1405	-1e-05	-1e-05	4e-05	1e-05	-1e-05	1e-05	0	1e-05	1
1406	-1e-05	-1e-05	4e-05	1e-05	-1e-05	1e-05	0	1e-05	1
1407	-1e-05	-1e-05	4e-05	1e-05	-1e-05	1e-05	0	1e-05	1
1408	-1e-05	-1e-05	4e-05	1e-05	-1e-05	1e-05	0	1e-05	1
1409	-1e-05	-1e-05	4e-05	1e-05	-1e-05	1e-05	0	1e-05	1
1410	0	-1e-05	-1e-05	7e-05	2e-05	-2e-05	3e-05	0	1
1411	-1e-05	-1e-05	0	-2e-05	-6e-05	-6e-05	-4e-05	-3e-05	1
1412	-1e-05	-1e-05	0	-2e-05	-6e-05	-6e-05	-4e-05	-3e-05	1
1413	-1e-05	-1e-05	0	-2e-05	-6e-05	-6e-05	-4e-05	-3e-05	1
1414	-1e-05	-1e-05	0	-2e-05	-6e-05	-6e-05	-4e-05	-3e-05	1
1415	-1e-05	-1e-05	0	-2e-05	-6e-05	-6e-05	-4e-05	-3e-05	1
1416	-1e-05	-1e-05	0	-2e-05	-6e-05	-6e-05	-4e-05	-3e-05	1
1417	-1e-05	-1e-05	0	-2e-05	-6e-05	-6e-05	-4e-05	-3e-05	1
1418	-1e-05	-1e-05	0	-2e-05	-6e-05	-6e-05	-4e-05	-3e-05	1
1419	0	-1e-05	0	-1e-05	-3e-05	0	-1e-05	0	1
1420	0	-1e-05	0	-1e-05	-3e-05	0	-1e-05	0	1
1421	0	0	1e-05	-3e-05	0	-6e-05	-1e-05	0	1
1422	0	0	1e-05	-3e-05	0	-6e-05	-1e-05	0	1
1423	0	0	1e-05	-3e-05	0	-6e-05	-1e-05	0	1
1424	0	0	1e-05	-3e-05	0	-6e-05	-1e-05	0	1
1425	0	0	1e-05	-3e-05	0	-6e-05	-1e-05	0	1
1426	0	0	1e-05	-3e-05	0	-6e-05	-1e-05	0	1
1427	0	0	1e-05	-3e-05	0	-6e-05	-1e-05	0	1
1428	0	0	1e-05	-3e-05	0	-6e-05	-1e-05	0	1
1429	0	0	1e-05	-3e-05	0	-6e-05	-1e-05	0	1
1430	0	0	1e-05	-3e-05	0	-6e-05	-1e-05	0	1
1431	0	0	1e-05	-3e-05	0	-6e-05	-1e-05	0	1
1432	0	0	1e-05	-3e-05	0	-6e-05	-1e-05	0	1
1433	0	0	1e-05	1e-05	0	4e-05	0	-3e-05	1
1434	0	0	1e-05	1e-05	0	4e-05	0	-3e-05	1
1435	0	0	1e-05	1e-05	0	4e-05	0	-3e-05	1
1436	0	0	1e-05	1e-05	0	4e-05	0	-3e-05	1
1438	0	0	1e-05	1e-05	0	4e-05	0	-3e-05	1
1439	0	0	1e-05	1e-05	0	4e-05	0	-3e-05	1
1440	0	0	1e-05	1e-05	0	4e-05	0	-3e-05	1
1441	0	0	1e-05	1e-05	0	4e-05	0	-3e-05	1
1442	-1e-05	-3e-05	-5e-05	-2e-05	-2e-05	1e-05	2e-05	-1e-05	1
1443	-1e-05	-3e-05	-5e-05	-2e-05	-2e-05	1e-05	2e-05	-1e-05	1
1444	-1e-05	-3e-05	-5e-05	-2e-05	-2e-05	1e-05	2e-05	-1e-05	1
1445	-1e-05	-3e-05	-5e-05	-2e-05	-2e-05	1e-05	2e-05	-1e-05	1
1446	-1e-05	-3e-05	-5e-05	-2e-05	-2e-05	1e-05	2e-05	-1e-05	1
1447	-1e-05	-3e-05	-5e-05	-2e-05	-2e-05	1e-05	2e-05	-1e-05	1
1448	-1e-05	-3e-05	-5e-05	-2e-05	-2e-05	1e-05	2e-05	-1e-05	1
1449	-1e-05	-3e-05	-5e-05	-2e-05	-2e-05	1e-05	2e-05	-1e-05	1
1450	-1e-05	-3e-05	-5e-05	-2e-05	-2e-05	1e-05	2e-05	-1e-05	1
1451	-1e-05	-3e-05	-5e-05	-2e-05	-2e-05	1e-05	2e-05	-1e-05	1
1452	-1e-05	-3e-05	-5e-05	-2e-05	-2e-05	1e-05	2e-05	-1e-05	1
1453	-1e-05	-3e-05	-5e-05	-2e-05	-2e-05	1e-05	2e-05	-1e-05	1
1454	-1e-05	-3e-05	-5e-05	-2e-05	-2e-05	1e-05	2e-05	-1e-05	1
1455	-1e-05	-3e-05	-5e-05	-2e-05	-2e-05	1e-05	2e-05	-1e-05	1
1456	-1e-05	-2e-05	-8e-05	-3e-05	2e-05	2e-05	-1e-05	-2e-05	1
1457	-1e-05	-2e-05	-8e-05	-3e-05	2e-05	2e-05	-1e-05	-2e-05	1
1458	-1e-05	-2e-05	-8e-05	-3e-05	2e-05	2e-05	-1e-05	-2e-05	1
1459	-1e-05	-2e-05	-8e-05	-3e-05	2e-05	2e-05	-1e-05	-2e-05	1
1460	-1e-05	-2e-05	-8e-05	-3e-05	2e-05	2e-05	-1e-05	-2e-05	1
1461	-1e-05	-2e-05	-8e-05	-3e-05	2e-05	2e-05	-1e-05	-2e-05	1
1462	-1e-05	-2e-05	-8e-05	-3e-05	2e-05	2e-05	-1e-05	-2e-05	1
1463	-3e-05	-4e-05	-0.00013	-0.00018	-4e-05	2e-05	-3e-05	0	1
1465	-3e-05	-4e-05	-0.00013	-0.00018	-4e-05	2e-05	-3e-05	0	1
1466	-3e-05	-4e-05	-0.00013	-0.00018	-4e-05	2e-05	-3e-05	0	1
1467	-3e-05	-4e-05	-0.00013	-0.00018	-4e-05	2e-05	-3e-05	0	1
1468	-3e-05	-4e-05	-0.00013	-0.00018	-4e-05	2e-05	-3e-05	0	1
1469	-3e-05	-4e-05	-0.00013	-0.00018	-4e-05	2e-05	-3e-05	0	1
1470	-3e-05	-4e-05	-0.00013	-0.00018	-4e-05	2e-05	-3e-05	0	1
1471	-3e-05	-4e-05	-0.00013	-0.00018	-4e-05	2e-05	-3e-05	0	1
1472	-3e-05	-4e-05	-0.00013	-0.00018	-4e-05	2e-05	-3e-05	0	1
1473	-3e-05	-4e-05	-0.00013	-0.00018	-4e-05	2e-05	-3e-05	0	1
1474	-3e-05	-4e-05	-0.00013	-0.00018	-4e-05	2e-05	-3e-05	0	1
1475	-3e-05	-4e-05	-0.00013	-0.00018	-4e-05	2e-05	-3e-05	0	1
1476	-3e-05	-4e-05	-0.00013	-0.00018	-4e-05	2e-05	-3e-05	0	1
1477	-3e-05	-4e-05	-0.00013	-0.00018	-4e-05	2e-05	-3e-05	0	1
1478	-3e-05	-4e-05	-0.00013	-0.00018	-4e-05	2e-05	-3e-05	0	1
1479	0	1e-05	6e-05	-2e-05	-1e-05	-5e-05	-2e-05	-2e-05	1
1480	0	1e-05	6e-05	-2e-05	-1e-05	-5e-05	-2e-05	-2e-05	1
1481	-3e-05	-2e-05	-4e-05	-2e-05	1e-05	-8e-05	0	-1e-05	1
1482	-3e-05	-2e-05	-4e-05	-2e-05	1e-05	-8e-05	0	-1e-05	1
1483	-3e-05	-2e-05	-4e-05	-2e-05	1e-05	-8e-05	0	-1e-05	1
1484	-3e-05	-2e-05	-4e-05	-2e-05	1e-05	-8e-05	0	-1e-05	1
1485	-3e-05	-2e-05	-4e-05	-2e-05	1e-05	-8e-05	0	-1e-05	1
1486	-3e-05	-2e-05	-4e-05	-2e-05	1e-05	-8e-05	0	-1e-05	1
1488	-3e-05	-2e-05	-4e-05	-2e-05	1e-05	-8e-05	0	-1e-05	1
1489	-3e-05	-2e-05	-4e-05	-2e-05	1e-05	-8e-05	0	-1e-05	1
1490	-3e-05	-2e-05	-4e-05	-2e-05	1e-05	-8e-05	0	-1e-05	1
1491	-3e-05	-2e-05	-4e-05	-2e-05	1e-05	-8e-05	0	-1e-05	1
1492	-3e-05	-2e-05	-4e-05	-2e-05	1e-05	-8e-05	0	-1e-05	1
1493	0	2e-05	-1e-05	0	0	7e-05	1e-05	-1e-05	1
1494	0	2e-05	-1e-05	0	0	7e-05	1e-05	-1e-05	1
1495	0	2e-05	-1e-05	0	0	7e-05	1e-05	-1e-05	1
1496	0	2e-05	-1e-05	0	0	7e-05	1e-05	-1e-05	1
1497	0	2e-05	-1e-05	0	0	7e-05	1e-05	-1e-05	1
1498	0	2e-05	-1e-05	0	0	7e-05	1e-05	-1e-05	1
1499	0	2e-05	-1e-05	0	0	7e-05	1e-05	-1e-05	1
1500	0	2e-05	-1e-05	0	0	7e-05	1e-05	-1e-05	1
1501	0	2e-05	-1e-05	0	0	7e-05	1e-05	-1e-05	1
1502	-1e-05	-2e-05	-4e-05	-6e-05	-2e-05	-7e-05	-2e-05	1e-05	1
1503	-2e-05	-3e-05	1e-05	2e-05	-2e-05	6e-05	0	-1e-05	1
1504	-2e-05	-3e-05	1e-05	2e-05	-2e-05	6e-05	0	-1e-05	1
1505	-2e-05	-3e-05	1e-05	2e-05	-2e-05	6e-05	0	-1e-05	1
1506	-2e-05	-3e-05	1e-05	2e-05	-2e-05	6e-05	0	-1e-05	1
1507	-2e-05	-3e-05	1e-05	2e-05	-2e-05	6e-05	0	-1e-05	1
1508	-2e-05	-3e-05	1e-05	2e-05	-2e-05	6e-05	0	-1e-05	1
1509	-2e-05	-3e-05	1e-05	2e-05	-2e-05	6e-05	0	-1e-05	1
1510	-2e-05	-3e-05	1e-05	2e-05	-2e-05	6e-05	0	-1e-05	1
1511	-2e-05	-3e-05	1e-05	2e-05	-2e-05	6e-05	0	-1e-05	1
1512	-2e-05	-3e-05	1e-05	2e-05	-2e-05	6e-05	0	-1e-05	1
1513	-2e-05	-3e-05	1e-05	2e-05	-2e-05	6e-05	0	-1e-05	1
1514	-2e-05	-3e-05	1e-05	2e-05	-2e-05	6e-05	0	-1e-05	1
1515	-2e-05	-3e-05	1e-05	2e-05	-2e-05	6e-05	0	-1e-05	1
1516	-3e-05	-1e-05	-1e-05	3e-05	0	0	-1e-05	-2e-05	1
1517	-3e-05	-1e-05	-1e-05	3e-05	0	0	-1e-05	-2e-05	1
1518	-3e-05	-1e-05	-1e-05	3e-05	0	0	-1e-05	-2e-05	1
1519	-3e-05	-1e-05	-1e-05	3e-05	0	0	-1e-05	-2e-05	1
1520	-3e-05	-1e-05	-1e-05	3e-05	0	0	-1e-05	-2e-05	1
1521	-3e-05	-1e-05	-1e-05	3e-05	0	0	-1e-05	-2e-05	1
1522	-3e-05	-1e-05	-1e-05	3e-05	0	0	-1e-05	-2e-05	1
1523	-3e-05	-2e-05	-4e-05	-2e-05	0	2e-05	0	-2e-05	1
1524	-3e-05	-2e-05	-4e-05	-2e-05	0	2e-05	0	-2e-05	1
1525	-3e-05	-2e-05	-4e-05	-2e-05	0	2e-05	0	-2e-05	1
1526	-3e-05	-2e-05	-4e-05	-2e-05	0	2e-05	0	-2e-05	1
1527	-3e-05	-2e-05	-4e-05	-2e-05	0	2e-05	0	-2e-05	1
1528	-3e-05	-2e-05	-4e-05	-2e-05	0	2e-05	0	-2e-05	1
1529	-3e-05	-2e-05	-4e-05	-2e-05	0	2e-05	0	-2e-05	1
1530	-3e-05	-2e-05	-4e-05	-2e-05	0	2e-05	0	-2e-05	1
1531	-3e-05	-2e-05	-4e-05	-2e-05	0	2e-05	0	-2e-05	1
1532	-3e-05	-2e-05	-4e-05	-2e-05	0	2e-05	0	-2e-05	1
1533	-3e-05	-2e-05	-4e-05	-2e-05	0	2e-05	0	-2e-05	1
1534	-3e-05	-2e-05	-4e-05	-2e-05	0	2e-05	0	-2e-05	1
1535	-3e-05	-2e-05	-4e-05	-2e-05	0	2e-05	0	-2e-05	1
1536	-3e-05	-2e-05	-4e-05	-2e-05	0	2e-05	0	-2e-05	1
1538	-3e-05	-2e-05	-4e-05	-2e-05	0	2e-05	0	-2e-05	1
1539	0	-1e-05	0	-7e-05	-3e-05	1e-05	-1e-05	1e-05	1
1540	0	-1e-05	0	-7e-05	-3e-05	1e-05	-1e-05	1e-05	1
1541	0	-1e-05	0	-7e-05	-3e-05	1e-05	-1e-05	1e-05	1
1542	0	-1e-05	0	-7e-05	-3e-05	1e-05	-1e-05	1e-05	1
1543	0	-1e-05	0	-7e-05	-3e-05	1e-05	-1e-05	1e-05	1
1544	0	-1e-05	0	-7e-05	-3e-05	1e-05	-1e-05	1e-05	1
1545	0	1e-05	5e-05	1e-05	-3e-05	-1e-05	-2e-05	-1e-05	1
1546	0	1e-05	5e-05	1e-05	-3e-05	-1e-05	-2e-05	-1e-05	1
1547	0	1e-05	5e-05	1e-05	-3e-05	-1e-05	-2e-05	-1e-05	1
1548	0	1e-05	5e-05	1e-05	-3e-05	-1e-05	-2e-05	-1e-05	1
1549	0	1e-05	5e-05	1e-05	-3e-05	-1e-05	-2e-05	-1e-05	1
1550	0	1e-05	5e-05	1e-05	-3e-05	-1e-05	-2e-05	-1e-05	1
1551	0	1e-05	5e-05	1e-05	-3e-05	-1e-05	-2e-05	-1e-05	1
1552	0	1e-05	5e-05	1e-05	-3e-05	-1e-05	-2e-05	-1e-05	1
1553	-2e-05	0	1e-05	-1e-05	1e-05	-1e-05	-1e-05	0	1
1554	-2e-05	0	1e-05	-1e-05	1e-05	-1e-05	-1e-05	0	1
1555	-2e-05	0	1e-05	-1e-05	1e-05	-1e-05	-1e-05	0	1
1556	-2e-05	0	1e-05	-1e-05	1e-05	-1e-05	-1e-05	0	1
1557	-2e-05	0	1e-05	-1e-05	1e-05	-1e-05	-1e-05	0	1
1558	-2e-05	0	1e-05	-1e-05	1e-05	-1e-05	-1e-05	0	1
1559	-2e-05	0	1e-05	-1e-05	1e-05	-1e-05	-1e-05	0	1
1560	-2e-05	0	1e-05	-1e-05	1e-05	-1e-05	-1e-05	0	1
1561	-2e-05	0	1e-05	-1e-05	1e-05	-1e-05	-1e-05	0	1
1562	0	0	3e-05	-5e-05	-4e-05	-3e-05	-1e-05	0	1
1563	0	0	3e-05	-5e-05	-4e-05	-3e-05	-1e-05	0	1
1564	0	0	3e-05	-5e-05	-4e-05	-3e-05	-1e-05	0	1
1565	0	0	3e-05	-5e-05	-4e-05	-3e-05	-1e-05	0	1
1566	0	0	3e-05	-5e-05	-4e-05	-3e-05	-1e-05	0	1
1567	0	0	3e-05	-5e-05	-4e-05	-3e-05	-1e-05	0	1
1568	0	0	3e-05	-5e-05	-4e-05	-3e-05	-1e-05	0	1
1569	0	0	3e-05	-5e-05	-4e-05	-3e-05	-1e-05	0	1
1570	0	0	3e-05	-5e-05	-4e-05	-3e-05	-1e-05	0	1
1571	0	0	3e-05	-5e-05	-4e-05	-3e-05	-1e-05	0	1
1572	0	0	3e-05	-5e-05	-4e-05	-3e-05	-1e-05	0	1
1573	0	0	3e-05	-5e-05	-4e-05	-3e-05	-1e-05	0	1
1574	0	0	3e-05	-5e-05	-4e-05	-3e-05	-1e-05	0	1
1575	0	0	3e-05	-5e-05	-4e-05	-3e-05	-1e-05	0	1
1576	-2e-05	-6e-05	-3e-05	-2e-05	0	-3e-05	1e-05	-1e-05	1
1577	-2e-05	-6e-05	-3e-05	-2e-05	0	-3e-05	1e-05	-1e-05	1
1578	-2e-05	-6e-05	-3e-05	-2e-05	0	-3e-05	1e-05	-1e-05	1
1579	-2e-05	-6e-05	-3e-05	-2e-05	0	-3e-05	1e-05	-1e-05	1
1580	-2e-05	-6e-05	-3e-05	-2e-05	0	-3e-05	1e-05	-1e-05	1
1581	-2e-05	-6e-05	-3e-05	-2e-05	0	-3e-05	1e-05	-1e-05	1
1582	-2e-05	-6e-05	-3e-05	-2e-05	0	-3e-05	1e-05	-1e-05	1
1583	-1e-05	1e-05	3e-05	4e-05	-2e-05	-7e-05	-1e-05	-2e-05	1
1584	-1e-05	1e-05	3e-05	4e-05	-2e-05	-7e-05	-1e-05	-2e-05	1
1585	-1e-05	1e-05	3e-05	4e-05	-2e-05	-7e-05	-1e-05	-2e-05	1
1586	-1e-05	1e-05	3e-05	4e-05	-2e-05	-7e-05	-1e-05	-2e-05	1
1588	-1e-05	1e-05	3e-05	4e-05	-2e-05	-7e-05	-1e-05	-2e-05	1
1589	-1e-05	1e-05	3e-05	4e-05	-2e-05	-7e-05	-1e-05	-2e-05	1
1590	-1e-05	1e-05	3e-05	4e-05	-2e-05	-7e-05	-1e-05	-2e-05	1
1591	-1e-05	1e-05	3e-05	4e-05	-2e-05	-7e-05	-1e-05	-2e-05	1
1592	-1e-05	1e-05	3e-05	4e-05	-2e-05	-7e-05	-1e-05	-2e-05	1
1593	-1e-05	1e-05	3e-05	4e-05	-2e-05	-7e-05	-1e-05	-2e-05	1
1594	-1e-05	1e-05	3e-05	4e-05	-2e-05	-7e-05	-1e-05	-2e-05	1
1595	-1e-05	1e-05	3e-05	4e-05	-2e-05	-7e-05	-1e-05	-2e-05	1
1596	-1e-05	1e-05	3e-05	4e-05	-2e-05	-7e-05	-1e-05	-2e-05	1
1597	-1e-05	1e-05	3e-05	4e-05	-2e-05	-7e-05	-1e-05	-2e-05	1
1598	-1e-05	1e-05	3e-05	4e-05	-2e-05	-7e-05	-1e-05	-2e-05	1
1599	-1e-05	-2e-05	-5e-05	3e-05	-1e-05	-1e-05	-2e-05	-2e-05	1
1600	-1e-05	-2e-05	-5e-05	3e-05	-1e-05	-1e-05	-2e-05	-2e-05	1
1601	-1e-05	-2e-05	-5e-05	3e-05	-1e-05	-1e-05	-2e-05	-2e-05	1
1602	-1e-05	-2e-05	-5e-05	3e-05	-1e-05	-1e-05	-2e-05	-2e-05	1
1603	-1e-05	-2e-05	-5e-05	3e-05	-1e-05	-1e-05	-2e-05	-2e-05	1
1604	-1e-05	-2e-05	-5e-05	3e-05	-1e-05	-1e-05	-2e-05	-2e-05	1
1605	-1e-05	0	1e-05	2e-05	4e-05	0	-1e-05	0	1
1606	0	-2e-05	-7e-05	-5e-05	0	0	0	-4e-05	1
1607	0	-2e-05	-7e-05	-5e-05	0	0	0	-4e-05	1
1608	0	-2e-05	-7e-05	-5e-05	0	0	0	-4e-05	1
1609	0	-2e-05	-7e-05	-5e-05	0	0	0	-4e-05	1
1610	0	-2e-05	-7e-05	-5e-05	0	0	0	-4e-05	1
1611	0	-2e-05	-7e-05	-5e-05	0	0	0	-4e-05	1
1612	0	-2e-05	-7e-05	-5e-05	0	0	0	-4e-05	1
1613	-1e-05	0	0	-5e-05	-3e-05	-1e-05	-2e-05	-1e-05	1
1614	0	0	2e-05	3e-05	2e-05	0	-1e-05	-1e-05	1
1615	0	0	2e-05	3e-05	2e-05	0	-1e-05	-1e-05	1
1616	0	0	2e-05	3e-05	2e-05	0	-1e-05	-1e-05	1
1617	0	0	2e-05	3e-05	2e-05	0	-1e-05	-1e-05	1
1618	0	0	2e-05	3e-05	2e-05	0	-1e-05	-1e-05	1
1619	0	0	2e-05	3e-05	2e-05	0	-1e-05	-1e-05	1
1620	0	0	2e-05	3e-05	2e-05	0	-1e-05	-1e-05	1
1621	0	0	2e-05	3e-05	2e-05	0	-1e-05	-1e-05	1
1622	0	0	2e-05	3e-05	2e-05	0	-1e-05	-1e-05	1
1623	0	0	2e-05	3e-05	2e-05	0	-1e-05	-1e-05	1
1624	0	0	2e-05	3e-05	2e-05	0	-1e-05	-1e-05	1
1625	0	0	2e-05	3e-05	2e-05	0	-1e-05	-1e-05	1
1626	0	0	2e-05	3e-05	2e-05	0	-1e-05	-1e-05	1
1627	0	0	2e-05	3e-05	2e-05	0	-1e-05	-1e-05	1
1628	0	0	2e-05	3e-05	2e-05	0	-1e-05	-1e-05	1
1629	0	0	2e-05	3e-05	2e-05	0	-1e-05	-1e-05	1
1630	1e-05	1e-05	2e-05	3e-05	3e-05	1e-05	1e-05	0	1
1631	1e-05	1e-05	2e-05	3e-05	3e-05	1e-05	1e-05	0	1
1632	1e-05	1e-05	2e-05	3e-05	3e-05	1e-05	1e-05	0	1
1633	1e-05	1e-05	2e-05	3e-05	3e-05	1e-05	1e-05	0	1
1634	1e-05	1e-05	2e-05	3e-05	3e-05	1e-05	1e-05	0	1
1635	1e-05	1e-05	2e-05	3e-05	3e-05	1e-05	1e-05	0	1
1636	-1e-05	2e-05	-2e-05	0	-2e-05	-4e-05	-2e-05	1e-05	1
1638	-1e-05	2e-05	-2e-05	0	-2e-05	-4e-05	-2e-05	1e-05	1
1639	-1e-05	2e-05	-2e-05	0	-2e-05	-4e-05	-2e-05	1e-05	1
1640	-1e-05	2e-05	-2e-05	0	-2e-05	-4e-05	-2e-05	1e-05	1
1641	-1e-05	2e-05	-2e-05	0	-2e-05	-4e-05	-2e-05	1e-05	1
1642	-1e-05	2e-05	-2e-05	0	-2e-05	-4e-05	-2e-05	1e-05	1
1643	0	0	4e-05	1e-05	1e-05	-2e-05	-1e-05	-1e-05	1
1644	0	0	4e-05	1e-05	1e-05	-2e-05	-1e-05	-1e-05	1
1645	0	0	4e-05	1e-05	1e-05	-2e-05	-1e-05	-1e-05	1
1646	0	0	4e-05	1e-05	1e-05	-2e-05	-1e-05	-1e-05	1
1647	0	0	4e-05	1e-05	1e-05	-2e-05	-1e-05	-1e-05	1
1648	0	0	4e-05	1e-05	1e-05	-2e-05	-1e-05	-1e-05	1
1649	0	0	4e-05	1e-05	1e-05	-2e-05	-1e-05	-1e-05	1
1650	0	0	4e-05	1e-05	1e-05	-2e-05	-1e-05	-1e-05	1
1651	0	0	4e-05	1e-05	1e-05	-2e-05	-1e-05	-1e-05	1
1652	0	0	4e-05	1e-05	1e-05	-2e-05	-1e-05	-1e-05	1
1653	0	0	4e-05	1e-05	1e-05	-2e-05	-1e-05	-1e-05	1
1654	0	0	4e-05	1e-05	1e-05	-2e-05	-1e-05	-1e-05	1
1655	0	0	4e-05	1e-05	1e-05	-2e-05	-1e-05	-1e-05	1
1656	0	0	4e-05	1e-05	1e-05	-2e-05	-1e-05	-1e-05	1
1657	0	0	4e-05	1e-05	1e-05	-2e-05	-1e-05	-1e-05	1
1658	0	0	4e-05	1e-05	1e-05	-2e-05	-1e-05	-1e-05	1
1659	-2e-05	0	-1e-05	-0.00016	1e-05	4e-05	0	1e-05	1
1660	-2e-05	0	-1e-05	-0.00016	1e-05	4e-05	0	1e-05	1
1661	-2e-05	0	-1e-05	-0.00016	1e-05	4e-05	0	1e-05	1
1662	-2e-05	0	-1e-05	-0.00016	1e-05	4e-05	0	1e-05	1
1663	-2e-05	0	-1e-05	-0.00016	1e-05	4e-05	0	1e-05	1
1664	-2e-05	0	-1e-05	-0.00016	1e-05	4e-05	0	1e-05	1
1665	-2e-05	0	-1e-05	-0.00016	1e-05	4e-05	0	1e-05	1
1666	-2e-05	-1e-05	1e-05	4e-05	3e-05	-2e-05	-3e-05	-1e-05	1
1667	-2e-05	-1e-05	1e-05	4e-05	3e-05	-2e-05	-3e-05	-1e-05	1
1668	-2e-05	-1e-05	1e-05	4e-05	3e-05	-2e-05	-3e-05	-1e-05	1
1669	-2e-05	-1e-05	1e-05	4e-05	3e-05	-2e-05	-3e-05	-1e-05	1
1670	-2e-05	-1e-05	1e-05	4e-05	3e-05	-2e-05	-3e-05	-1e-05	1
1671	-2e-05	-1e-05	1e-05	4e-05	3e-05	-2e-05	-3e-05	-1e-05	1
1672	-2e-05	-1e-05	1e-05	4e-05	3e-05	-2e-05	-3e-05	-1e-05	1
1673	-2e-05	-1e-05	1e-05	4e-05	3e-05	-2e-05	-3e-05	-1e-05	1
1674	-2e-05	-1e-05	1e-05	4e-05	3e-05	-2e-05	-3e-05	-1e-05	1
1675	-2e-05	-1e-05	1e-05	4e-05	3e-05	-2e-05	-3e-05	-1e-05	1
1676	-2e-05	-1e-05	1e-05	4e-05	3e-05	-2e-05	-3e-05	-1e-05	1
1677	-2e-05	-1e-05	1e-05	4e-05	3e-05	-2e-05	-3e-05	-1e-05	1
1678	-2e-05	-1e-05	1e-05	4e-05	3e-05	-2e-05	-3e-05	-1e-05	1
1679	-2e-05	-1e-05	1e-05	4e-05	3e-05	-2e-05	-3e-05	-1e-05	1
1680	-2e-05	-1e-05	1e-05	4e-05	3e-05	-2e-05	-3e-05	-1e-05	1
1681	-2e-05	-1e-05	1e-05	4e-05	3e-05	-2e-05	-3e-05	-1e-05	1
1682	-2e-05	-1e-05	1e-05	4e-05	3e-05	-2e-05	-3e-05	-1e-05	1
1683	-2e-05	-1e-05	1e-05	4e-05	3e-05	-2e-05	-3e-05	-1e-05	1
1684	-2e-05	-1e-05	1e-05	4e-05	3e-05	-2e-05	-3e-05	-1e-05	1
1685	-2e-05	-1e-05	1e-05	4e-05	3e-05	-2e-05	-3e-05	-1e-05	1
1686	-2e-05	-1e-05	1e-05	4e-05	3e-05	-2e-05	-3e-05	-1e-05	1
1688	-2e-05	-1e-05	1e-05	4e-05	3e-05	-2e-05	-3e-05	-1e-05	1
1689	-1e-05	1e-05	2e-05	6e-05	-1e-05	1e-05	-1e-05	0	1
1690	-2e-05	-1e-05	2e-05	3e-05	0	-1e-05	-3e-05	0	1
1691	0	-4e-05	-5e-05	-4e-05	-2e-05	0	-1e-05	-1e-05	1
1692	0	-4e-05	-5e-05	-4e-05	-2e-05	0	-1e-05	-1e-05	1
1693	0	-4e-05	-5e-05	-4e-05	-2e-05	0	-1e-05	-1e-05	1
1694	0	-4e-05	-5e-05	-4e-05	-2e-05	0	-1e-05	-1e-05	1
1695	0	-4e-05	-5e-05	-4e-05	-2e-05	0	-1e-05	-1e-05	1
1696	-3e-05	-2e-05	0	6e-05	1e-05	-1e-05	0	-1e-05	1
1697	-1e-05	-1e-05	1e-05	-2e-05	-3e-05	-4e-05	-1e-05	-2e-05	1
1698	-1e-05	-1e-05	1e-05	-2e-05	-3e-05	-4e-05	-1e-05	-2e-05	1
1699	-1e-05	-1e-05	1e-05	-2e-05	-3e-05	-4e-05	-1e-05	-2e-05	1
1700	-1e-05	-1e-05	1e-05	-2e-05	-3e-05	-4e-05	-1e-05	-2e-05	1
1701	-1e-05	-1e-05	1e-05	-2e-05	-3e-05	-4e-05	-1e-05	-2e-05	1
1702	-1e-05	-1e-05	1e-05	-2e-05	-3e-05	-4e-05	-1e-05	-2e-05	1
1703	0	1e-05	-1e-05	-4e-05	-5e-05	-6e-05	-2e-05	0	1
1704	0	1e-05	-1e-05	-4e-05	-5e-05	-6e-05	-2e-05	0	1
1705	0	1e-05	-1e-05	-4e-05	-5e-05	-6e-05	-2e-05	0	1
1706	0	1e-05	-1e-05	-4e-05	-5e-05	-6e-05	-2e-05	0	1
1707	0	1e-05	-1e-05	-4e-05	-5e-05	-6e-05	-2e-05	0	1
1708	0	1e-05	-1e-05	-4e-05	-5e-05	-6e-05	-2e-05	0	1
1709	0	1e-05	-1e-05	-4e-05	-5e-05	-6e-05	-2e-05	0	1
1710	0	1e-05	-1e-05	-4e-05	-5e-05	-6e-05	-2e-05	0	1
1711	0	1e-05	-1e-05	-4e-05	-5e-05	-6e-05	-2e-05	0	1
1712	0	1e-05	-1e-05	-4e-05	-5e-05	-6e-05	-2e-05	0	1
1713	0	1e-05	-1e-05	-4e-05	-5e-05	-6e-05	-2e-05	0	1
1714	0	1e-05	-1e-05	-4e-05	-5e-05	-6e-05	-2e-05	0	1
1715	0	1e-05	-1e-05	-4e-05	-5e-05	-6e-05	-2e-05	0	1
1716	0	1e-05	-1e-05	-4e-05	-5e-05	-6e-05	-2e-05	0	1
1717	0	1e-05	-1e-05	-4e-05	-5e-05	-6e-05	-2e-05	0	1
1718	0	1e-05	-1e-05	-4e-05	-5e-05	-6e-05	-2e-05	0	1
1719	-1e-05	1e-05	1e-05	9e-05	-1e-05	0	1e-05	0	1
1720	-1e-05	1e-05	1e-05	9e-05	-1e-05	0	1e-05	0	1
1721	-1e-05	1e-05	1e-05	9e-05	-1e-05	0	1e-05	0	1
1722	-1e-05	1e-05	1e-05	9e-05	-1e-05	0	1e-05	0	1
1723	-1e-05	1e-05	1e-05	9e-05	-1e-05	0	1e-05	0	1
1724	-1e-05	1e-05	1e-05	9e-05	-1e-05	0	1e-05	0	1
1725	-1e-05	1e-05	1e-05	9e-05	-1e-05	0	1e-05	0	1
1726	-1e-05	-1e-05	-1e-05	3e-05	0	0	1e-05	0	1
1727	-1e-05	-1e-05	-1e-05	3e-05	0	0	1e-05	0	1
1728	-1e-05	-1e-05	-1e-05	3e-05	0	0	1e-05	0	1
1729	-1e-05	-1e-05	-1e-05	3e-05	0	0	1e-05	0	1
1730	-1e-05	-1e-05	-1e-05	3e-05	0	0	1e-05	0	1
1731	-1e-05	-1e-05	-1e-05	3e-05	0	0	1e-05	0	1
1732	-1e-05	-1e-05	-1e-05	3e-05	0	0	1e-05	0	1
1733	-1e-05	-1e-05	-1e-05	3e-05	0	0	1e-05	0	1
1734	-1e-05	-1e-05	-1e-05	3e-05	0	0	1e-05	0	1
1735	-1e-05	-1e-05	-1e-05	3e-05	0	0	1e-05	0	1
1736	-1e-05	-1e-05	-1e-05	3e-05	0	0	1e-05	0	1
1738	-1e-05	-1e-05	-1e-05	3e-05	0	0	1e-05	0	1
1739	-1e-05	-1e-05	-1e-05	3e-05	0	0	1e-05	0	1
1740	-1e-05	-1e-05	-1e-05	3e-05	0	0	1e-05	0	1
1741	-1e-05	-1e-05	-1e-05	3e-05	0	0	1e-05	0	1
1742	-1e-05	0	0	3e-05	3e-05	0	-1e-05	-2e-05	1
1743	0	-3e-05	2e-05	-4e-05	-1e-05	-6e-05	-3e-05	-2e-05	1
1744	1e-05	1e-05	1e-05	0.00015	2e-05	-0.00014	-4e-05	-2e-05	1
1745	1e-05	1e-05	1e-05	0.00015	2e-05	-0.00014	-4e-05	-2e-05	1
1746	1e-05	1e-05	1e-05	0.00015	2e-05	-0.00014	-4e-05	-2e-05	1
1747	1e-05	1e-05	1e-05	0.00015	2e-05	-0.00014	-4e-05	-2e-05	1
1748	1e-05	1e-05	1e-05	0.00015	2e-05	-0.00014	-4e-05	-2e-05	1
1749	1e-05	1e-05	1e-05	0.00015	2e-05	-0.00014	-4e-05	-2e-05	1
1750	1e-05	1e-05	1e-05	0.00015	2e-05	-0.00014	-4e-05	-2e-05	1
1751	1e-05	1e-05	1e-05	0.00015	2e-05	-0.00014	-4e-05	-2e-05	1
1752	1e-05	1e-05	1e-05	0.00015	2e-05	-0.00014	-4e-05	-2e-05	1
1753	1e-05	1e-05	1e-05	0.00015	2e-05	-0.00014	-4e-05	-2e-05	1
1754	1e-05	1e-05	1e-05	0.00015	2e-05	-0.00014	-4e-05	-2e-05	1
1755	1e-05	1e-05	1e-05	0.00015	2e-05	-0.00014	-4e-05	-2e-05	1
1756	-4e-05	-1e-05	-3e-05	-7e-05	-6e-05	0	-1e-05	-1e-05	1
1757	-4e-05	-1e-05	-3e-05	-7e-05	-6e-05	0	-1e-05	-1e-05	1
1758	-4e-05	-1e-05	-3e-05	-7e-05	-6e-05	0	-1e-05	-1e-05	1
1759	-4e-05	-1e-05	-3e-05	-7e-05	-6e-05	0	-1e-05	-1e-05	1
1760	-4e-05	-1e-05	-3e-05	-7e-05	-6e-05	0	-1e-05	-1e-05	1
1761	-4e-05	-1e-05	-3e-05	-7e-05	-6e-05	0	-1e-05	-1e-05	1
1762	-4e-05	-1e-05	-3e-05	-7e-05	-6e-05	0	-1e-05	-1e-05	1
1763	-1e-05	-1e-05	-3e-05	-8e-05	-1e-05	5e-05	1e-05	0	1
1764	-1e-05	-1e-05	-3e-05	-8e-05	-1e-05	5e-05	1e-05	0	1
1765	-1e-05	-1e-05	-3e-05	-8e-05	-1e-05	5e-05	1e-05	0	1
1766	-1e-05	-1e-05	-3e-05	-8e-05	-1e-05	5e-05	1e-05	0	1
1767	-1e-05	-1e-05	-3e-05	-8e-05	-1e-05	5e-05	1e-05	0	1
1768	-1e-05	-1e-05	-3e-05	-8e-05	-1e-05	5e-05	1e-05	0	1
1769	-1e-05	-1e-05	-3e-05	-8e-05	-1e-05	5e-05	1e-05	0	1
1770	-1e-05	-1e-05	-3e-05	-8e-05	-1e-05	5e-05	1e-05	0	1
1771	-1e-05	-1e-05	-3e-05	-8e-05	-1e-05	5e-05	1e-05	0	1
1772	-1e-05	-1e-05	-3e-05	-8e-05	-1e-05	5e-05	1e-05	0	1
1773	-1e-05	-1e-05	-3e-05	-8e-05	-1e-05	5e-05	1e-05	0	1
1774	-1e-05	-1e-05	-3e-05	-8e-05	-1e-05	5e-05	1e-05	0	1
1775	-1e-05	-1e-05	-3e-05	-8e-05	-1e-05	5e-05	1e-05	0	1
1776	-1e-05	-1e-05	-3e-05	-8e-05	-1e-05	5e-05	1e-05	0	1
1777	-1e-05	-1e-05	-3e-05	-8e-05	-1e-05	5e-05	1e-05	0	1
1778	-1e-05	-1e-05	-3e-05	-8e-05	-1e-05	5e-05	1e-05	0	1
1779	-1e-05	-2e-05	2e-05	1e-05	1e-05	-4e-05	-1e-05	0	1
1780	-1e-05	-2e-05	2e-05	1e-05	1e-05	-4e-05	-1e-05	0	1
1781	-1e-05	-2e-05	2e-05	1e-05	1e-05	-4e-05	-1e-05	0	1
1782	-1e-05	-2e-05	2e-05	1e-05	1e-05	-4e-05	-1e-05	0	1
1783	-1e-05	-2e-05	2e-05	1e-05	1e-05	-4e-05	-1e-05	0	1
1784	-1e-05	-2e-05	2e-05	1e-05	1e-05	-4e-05	-1e-05	0	1
1785	-1e-05	-2e-05	2e-05	1e-05	1e-05	-4e-05	-1e-05	0	1
1786	-1e-05	0	0	2e-05	1e-05	3e-05	-1e-05	-1e-05	1
1788	-1e-05	0	0	2e-05	1e-05	3e-05	-1e-05	-1e-05	1
1789	-1e-05	0	0	2e-05	1e-05	3e-05	-1e-05	-1e-05	1
1790	-1e-05	0	0	2e-05	1e-05	3e-05	-1e-05	-1e-05	1
1791	-1e-05	0	0	2e-05	1e-05	3e-05	-1e-05	-1e-05	1
1792	-1e-05	0	0	2e-05	1e-05	3e-05	-1e-05	-1e-05	1
1793	-1e-05	0	0	2e-05	1e-05	3e-05	-1e-05	-1e-05	1
1794	-1e-05	0	0	2e-05	1e-05	3e-05	-1e-05	-1e-05	1
1795	-1e-05	0	0	2e-05	1e-05	3e-05	-1e-05	-1e-05	1
1796	-1e-05	0	0	2e-05	1e-05	3e-05	-1e-05	-1e-05	1
1797	-1e-05	0	0	2e-05	1e-05	3e-05	-1e-05	-1e-05	1
1798	-1e-05	0	0	2e-05	1e-05	3e-05	-1e-05	-1e-05	1
1799	-1e-05	0	0	2e-05	1e-05	3e-05	-1e-05	-1e-05	1
1800	-1e-05	0	0	2e-05	1e-05	3e-05	-1e-05	-1e-05	1
1801	-1e-05	0	0	2e-05	1e-05	3e-05	-1e-05	-1e-05	1
1802	1e-05	-1e-05	-2e-05	-8e-05	-3e-05	0	-2e-05	-2e-05	1
1803	0	-2e-05	0	5e-05	0	-6e-05	-1e-05	0	1
1804	0	0	3e-05	2e-05	2e-05	5e-05	0	0	1
1805	0	0	3e-05	2e-05	2e-05	5e-05	0	0	1
1806	0	0	3e-05	2e-05	2e-05	5e-05	0	0	1
1807	0	0	3e-05	2e-05	2e-05	5e-05	0	0	1
1808	0	0	3e-05	2e-05	2e-05	5e-05	0	0	1
1809	0	0	3e-05	2e-05	2e-05	5e-05	0	0	1
1810	0	0	3e-05	2e-05	2e-05	5e-05	0	0	1
1811	0	0	3e-05	2e-05	2e-05	5e-05	0	0	1
1812	0	0	3e-05	2e-05	2e-05	5e-05	0	0	1
1813	0	0	3e-05	2e-05	2e-05	5e-05	0	0	1
1814	0	0	3e-05	2e-05	2e-05	5e-05	0	0	1
1816	1e-05	-1e-05	-2e-05	-6e-05	-4e-05	-6e-05	-2e-05	-1e-05	1
1817	1e-05	-1e-05	-2e-05	6e-05	4e-05	0.00013	1e-05	-1e-05	1
1818	1e-05	-1e-05	-2e-05	6e-05	4e-05	0.00013	1e-05	-1e-05	1
1819	1e-05	-1e-05	-2e-05	6e-05	4e-05	0.00013	1e-05	-1e-05	1
1820	1e-05	-1e-05	-2e-05	6e-05	4e-05	0.00013	1e-05	-1e-05	1
1821	1e-05	-1e-05	-2e-05	6e-05	4e-05	0.00013	1e-05	-1e-05	1
1822	1e-05	-1e-05	-2e-05	6e-05	4e-05	0.00013	1e-05	-1e-05	1
1823	1e-05	-1e-05	1e-05	-3e-05	0	5e-05	0	-2e-05	1
1824	1e-05	-1e-05	1e-05	-3e-05	0	5e-05	0	-2e-05	1
1825	1e-05	-1e-05	1e-05	-3e-05	0	5e-05	0	-2e-05	1
1826	1e-05	-1e-05	1e-05	-3e-05	0	5e-05	0	-2e-05	1
1827	1e-05	-1e-05	1e-05	-3e-05	0	5e-05	0	-2e-05	1
1828	1e-05	-1e-05	1e-05	-3e-05	0	5e-05	0	-2e-05	1
1829	1e-05	-1e-05	1e-05	-3e-05	0	5e-05	0	-2e-05	1
1830	1e-05	-1e-05	1e-05	-3e-05	0	5e-05	0	-2e-05	1
1831	1e-05	-1e-05	1e-05	-3e-05	0	5e-05	0	-2e-05	1
1832	1e-05	-1e-05	1e-05	-3e-05	0	5e-05	0	-2e-05	1
1833	1e-05	-1e-05	1e-05	-3e-05	0	5e-05	0	-2e-05	1
1834	1e-05	-1e-05	1e-05	-3e-05	0	5e-05	0	-2e-05	1
1835	1e-05	-1e-05	1e-05	-3e-05	0	5e-05	0	-2e-05	1
1836	1e-05	-1e-05	1e-05	-3e-05	0	5e-05	0	-2e-05	1
1838	1e-05	-1e-05	1e-05	-3e-05	0	5e-05	0	-2e-05	1
1839	-1e-05	-2e-05	-1e-05	2e-05	-1e-05	3e-05	1e-05	-2e-05	1
1840	-1e-05	-2e-05	-1e-05	2e-05	-1e-05	3e-05	1e-05	-2e-05	1
1841	-1e-05	-2e-05	-1e-05	2e-05	-1e-05	3e-05	1e-05	-2e-05	1
1842	-1e-05	-2e-05	-1e-05	2e-05	-1e-05	3e-05	1e-05	-2e-05	1
1843	-1e-05	-2e-05	-1e-05	2e-05	-1e-05	3e-05	1e-05	-2e-05	1
1844	-1e-05	-2e-05	-1e-05	2e-05	-1e-05	3e-05	1e-05	-2e-05	1
1845	-1e-05	-2e-05	-1e-05	2e-05	-1e-05	3e-05	1e-05	-2e-05	1
1846	-1e-05	-2e-05	-1e-05	2e-05	-1e-05	3e-05	1e-05	-2e-05	1
1847	-3e-05	-4e-05	-7e-05	-6e-05	1e-05	6e-05	-2e-05	-1e-05	1
1848	-3e-05	-4e-05	-7e-05	-6e-05	1e-05	6e-05	-2e-05	-1e-05	1
1849	-3e-05	-4e-05	-7e-05	-6e-05	1e-05	6e-05	-2e-05	-1e-05	1
1850	-3e-05	-4e-05	-7e-05	-6e-05	1e-05	6e-05	-2e-05	-1e-05	1
1851	-3e-05	-4e-05	-7e-05	-6e-05	1e-05	6e-05	-2e-05	-1e-05	1
1852	-3e-05	-4e-05	-7e-05	-6e-05	1e-05	6e-05	-2e-05	-1e-05	1
1853	-3e-05	-4e-05	-7e-05	-6e-05	1e-05	6e-05	-2e-05	-1e-05	1
1854	-3e-05	-4e-05	-7e-05	-6e-05	1e-05	6e-05	-2e-05	-1e-05	1
1855	-3e-05	-4e-05	-7e-05	-6e-05	1e-05	6e-05	-2e-05	-1e-05	1
1856	-3e-05	-4e-05	-7e-05	-6e-05	1e-05	6e-05	-2e-05	-1e-05	1
1857	-3e-05	-4e-05	-7e-05	-6e-05	1e-05	6e-05	-2e-05	-1e-05	1
1858	-3e-05	-4e-05	-7e-05	-6e-05	1e-05	6e-05	-2e-05	-1e-05	1
1859	-3e-05	-4e-05	-7e-05	-6e-05	1e-05	6e-05	-2e-05	-1e-05	1
1860	-3e-05	-4e-05	-7e-05	-6e-05	1e-05	6e-05	-2e-05	-1e-05	1
1861	-3e-05	-4e-05	-7e-05	-6e-05	1e-05	6e-05	-2e-05	-1e-05	1
1862	-1e-05	1e-05	0	4e-05	-5e-05	-3e-05	-4e-05	0	1
1863	-1e-05	1e-05	0	4e-05	-5e-05	-3e-05	-4e-05	0	1
1864	-1e-05	-1e-05	-1e-05	-0.00017	-6e-05	-3e-05	-1e-05	-1e-05	1
1865	-1e-05	-1e-05	-1e-05	-0.00017	-6e-05	-3e-05	-1e-05	-1e-05	1
1866	-1e-05	-1e-05	-1e-05	-0.00017	-6e-05	-3e-05	-1e-05	-1e-05	1
1867	-1e-05	-1e-05	-1e-05	-0.00017	-6e-05	-3e-05	-1e-05	-1e-05	1
1868	-1e-05	-1e-05	-1e-05	-0.00017	-6e-05	-3e-05	-1e-05	-1e-05	1
1869	-1e-05	-1e-05	-1e-05	-0.00017	-6e-05	-3e-05	-1e-05	-1e-05	1
1870	-1e-05	-1e-05	-1e-05	-0.00017	-6e-05	-3e-05	-1e-05	-1e-05	1
1871	-1e-05	-1e-05	-1e-05	-0.00017	-6e-05	-3e-05	-1e-05	-1e-05	1
1872	-1e-05	-1e-05	-1e-05	-0.00017	-6e-05	-3e-05	-1e-05	-1e-05	1
1873	-1e-05	-1e-05	-1e-05	-0.00017	-6e-05	-3e-05	-1e-05	-1e-05	1
1874	-1e-05	-1e-05	-1e-05	-0.00017	-6e-05	-3e-05	-1e-05	-1e-05	1
1875	-1e-05	-1e-05	-1e-05	-0.00017	-6e-05	-3e-05	-1e-05	-1e-05	1
1876	0	-4e-05	1e-05	5e-05	2e-05	-5e-05	1e-05	0	1
1877	0	-4e-05	1e-05	5e-05	2e-05	-5e-05	1e-05	0	1
1878	0	-4e-05	1e-05	5e-05	2e-05	-5e-05	1e-05	0	1
1879	0	-4e-05	1e-05	5e-05	2e-05	-5e-05	1e-05	0	1
1880	0	-4e-05	1e-05	5e-05	2e-05	-5e-05	1e-05	0	1
1881	0	-4e-05	1e-05	5e-05	2e-05	-5e-05	1e-05	0	1
1882	0	-4e-05	1e-05	5e-05	2e-05	-5e-05	1e-05	0	1
1883	0	0	1e-05	8e-05	-2e-05	4e-05	0	0	1
1884	0	0	1e-05	8e-05	-2e-05	4e-05	0	0	1
1885	0	0	1e-05	8e-05	-2e-05	4e-05	0	0	1
1886	0	0	1e-05	8e-05	-2e-05	4e-05	0	0	1
1888	0	0	1e-05	8e-05	-2e-05	4e-05	0	0	1
1889	0	0	1e-05	8e-05	-2e-05	4e-05	0	0	1
1890	0	0	1e-05	8e-05	-2e-05	4e-05	0	0	1
1891	0	0	1e-05	8e-05	-2e-05	4e-05	0	0	1
1892	0	0	1e-05	8e-05	-2e-05	4e-05	0	0	1
1893	0	0	1e-05	8e-05	-2e-05	4e-05	0	0	1
1894	0	0	1e-05	8e-05	-2e-05	4e-05	0	0	1
1895	0	0	1e-05	8e-05	-2e-05	4e-05	0	0	1
1896	0	0	1e-05	8e-05	-2e-05	4e-05	0	0	1
1897	0	0	1e-05	8e-05	-2e-05	4e-05	0	0	1
1898	0	0	1e-05	8e-05	-2e-05	4e-05	0	0	1
1899	0	-2e-05	-1e-05	-8e-05	-2e-05	6e-05	1e-05	0	1
1900	0	-2e-05	-1e-05	-8e-05	-2e-05	6e-05	1e-05	0	1
1901	0	-2e-05	-1e-05	-8e-05	-2e-05	6e-05	1e-05	0	1
1902	0	-2e-05	-1e-05	-8e-05	-2e-05	6e-05	1e-05	0	1
1903	0	-2e-05	-1e-05	-8e-05	-2e-05	6e-05	1e-05	0	1
1904	0	-2e-05	-1e-05	-8e-05	-2e-05	6e-05	1e-05	0	1
1905	0	-2e-05	-1e-05	-8e-05	-2e-05	6e-05	1e-05	0	1
1906	0	-2e-05	-1e-05	-8e-05	-2e-05	6e-05	1e-05	0	1
1907	-3e-05	-4e-05	0	0.0001	1e-05	6e-05	1e-05	0	1
1908	-3e-05	-4e-05	0	0.0001	1e-05	6e-05	1e-05	0	1
1909	-3e-05	-4e-05	0	0.0001	1e-05	6e-05	1e-05	0	1
1910	-3e-05	-4e-05	0	0.0001	1e-05	6e-05	1e-05	0	1
1911	-3e-05	-4e-05	0	0.0001	1e-05	6e-05	1e-05	0	1
1912	-3e-05	-4e-05	0	0.0001	1e-05	6e-05	1e-05	0	1
1913	-3e-05	-4e-05	0	0.0001	1e-05	6e-05	1e-05	0	1
1914	-3e-05	-4e-05	0	0.0001	1e-05	6e-05	1e-05	0	1
1915	-3e-05	-4e-05	0	0.0001	1e-05	6e-05	1e-05	0	1
1916	-3e-05	-4e-05	0	0.0001	1e-05	6e-05	1e-05	0	1
1917	-3e-05	-4e-05	0	0.0001	1e-05	6e-05	1e-05	0	1
1918	-3e-05	-4e-05	0	0.0001	1e-05	6e-05	1e-05	0	1
1919	-3e-05	-4e-05	0	0.0001	1e-05	6e-05	1e-05	0	1
1920	-3e-05	-4e-05	0	0.0001	1e-05	6e-05	1e-05	0	1
1921	-3e-05	-4e-05	0	0.0001	1e-05	6e-05	1e-05	0	1
1922	-1e-05	-3e-05	-1e-05	4e-05	-1e-05	-7e-05	-1e-05	1e-05	1
1923	1e-05	2e-05	3e-05	4e-05	1e-05	7e-05	0	0	1
1924	-1e-05	-1e-05	-5e-05	-0.00012	-2e-05	-3e-05	-2e-05	0	1
1925	-1e-05	-1e-05	-5e-05	-0.00012	-2e-05	-3e-05	-2e-05	0	1
1926	-1e-05	-1e-05	-5e-05	-0.00012	-2e-05	-3e-05	-2e-05	0	1
1927	-1e-05	-1e-05	-5e-05	-0.00012	-2e-05	-3e-05	-2e-05	0	1
1928	-1e-05	-1e-05	-5e-05	-0.00012	-2e-05	-3e-05	-2e-05	0	1
1929	-1e-05	-1e-05	-5e-05	-0.00012	-2e-05	-3e-05	-2e-05	0	1
1930	-1e-05	-1e-05	-5e-05	-0.00012	-2e-05	-3e-05	-2e-05	0	1
1931	-1e-05	-1e-05	-5e-05	-0.00012	-2e-05	-3e-05	-2e-05	0	1
1932	-1e-05	-1e-05	-5e-05	-0.00012	-2e-05	-3e-05	-2e-05	0	1
1933	-1e-05	-1e-05	-5e-05	-0.00012	-2e-05	-3e-05	-2e-05	0	1
1934	-1e-05	-1e-05	-5e-05	-0.00012	-2e-05	-3e-05	-2e-05	0	1
1935	-1e-05	-1e-05	-5e-05	-0.00012	-2e-05	-3e-05	-2e-05	0	1
1936	-1e-05	-1e-05	-5e-05	-0.00012	-2e-05	-3e-05	-2e-05	0	1
1938	-2e-05	3e-05	2e-05	3e-05	-5e-05	-6e-05	-2e-05	-2e-05	1
1939	-2e-05	3e-05	2e-05	3e-05	-5e-05	-6e-05	-2e-05	-2e-05	1
1940	-2e-05	3e-05	2e-05	3e-05	-5e-05	-6e-05	-2e-05	-2e-05	1
1941	-2e-05	3e-05	2e-05	3e-05	-5e-05	-6e-05	-2e-05	-2e-05	1
1942	-2e-05	3e-05	2e-05	3e-05	-5e-05	-6e-05	-2e-05	-2e-05	1
1943	-1e-05	-3e-05	-1e-05	-5e-05	1e-05	-2e-05	-2e-05	-1e-05	1
1944	-1e-05	-3e-05	-1e-05	-5e-05	1e-05	-2e-05	-2e-05	-1e-05	1
1945	-1e-05	-3e-05	-1e-05	-5e-05	1e-05	-2e-05	-2e-05	-1e-05	1
1946	-1e-05	-3e-05	-1e-05	-5e-05	1e-05	-2e-05	-2e-05	-1e-05	1
1947	-1e-05	-3e-05	-1e-05	-5e-05	1e-05	-2e-05	-2e-05	-1e-05	1
1948	-1e-05	-3e-05	-1e-05	-5e-05	1e-05	-2e-05	-2e-05	-1e-05	1
1949	-1e-05	-3e-05	-1e-05	-5e-05	1e-05	-2e-05	-2e-05	-1e-05	1
1950	-1e-05	-3e-05	-1e-05	-5e-05	1e-05	-2e-05	-2e-05	-1e-05	1
1951	-1e-05	-3e-05	-1e-05	-5e-05	1e-05	-2e-05	-2e-05	-1e-05	1
1952	-1e-05	-3e-05	-1e-05	-5e-05	1e-05	-2e-05	-2e-05	-1e-05	1
1953	-1e-05	-3e-05	-1e-05	-5e-05	1e-05	-2e-05	-2e-05	-1e-05	1
1954	-1e-05	-3e-05	-1e-05	-5e-05	1e-05	-2e-05	-2e-05	-1e-05	1
1955	-1e-05	-3e-05	-1e-05	-5e-05	1e-05	-2e-05	-2e-05	-1e-05	1
1956	-1e-05	-3e-05	-1e-05	-5e-05	1e-05	-2e-05	-2e-05	-1e-05	1
1957	-1e-05	-3e-05	-1e-05	-5e-05	1e-05	-2e-05	-2e-05	-1e-05	1
1958	-1e-05	-3e-05	-1e-05	-5e-05	1e-05	-2e-05	-2e-05	-1e-05	1
1959	-1e-05	-3e-05	-1e-05	-5e-05	1e-05	-2e-05	-2e-05	-1e-05	1
1960	-1e-05	-3e-05	-1e-05	-5e-05	1e-05	-2e-05	-2e-05	-1e-05	1
1961	-1e-05	-3e-05	-1e-05	-5e-05	1e-05	-2e-05	-2e-05	-1e-05	1
1962	-1e-05	-3e-05	-1e-05	-5e-05	1e-05	-2e-05	-2e-05	-1e-05	1
1963	-1e-05	-3e-05	-1e-05	-5e-05	1e-05	-2e-05	-2e-05	-1e-05	1
1964	-1e-05	-3e-05	-1e-05	-5e-05	1e-05	-2e-05	-2e-05	-1e-05	1
1965	-1e-05	-3e-05	-1e-05	-5e-05	1e-05	-2e-05	-2e-05	-1e-05	1
1966	-1e-05	-3e-05	-1e-05	-5e-05	1e-05	-2e-05	-2e-05	-1e-05	1
1967	-1e-05	0	-5e-05	-6e-05	-5e-05	1e-05	0	0	1
1968	0	1e-05	3e-05	-1e-05	3e-05	9e-05	2e-05	-1e-05	1
1969	-1e-05	-2e-05	-4e-05	4e-05	1e-05	5e-05	0	0	1
1970	-1e-05	-2e-05	-4e-05	4e-05	1e-05	5e-05	0	0	1
1971	-1e-05	-2e-05	-4e-05	4e-05	1e-05	5e-05	0	0	1
1972	-1e-05	-2e-05	-4e-05	4e-05	1e-05	5e-05	0	0	1
1973	-1e-05	-2e-05	-4e-05	4e-05	1e-05	5e-05	0	0	1
1974	-1e-05	-2e-05	-4e-05	4e-05	1e-05	5e-05	0	0	1
1975	-1e-05	-2e-05	-4e-05	4e-05	1e-05	5e-05	0	0	1
1976	-1e-05	-2e-05	-4e-05	4e-05	1e-05	5e-05	0	0	1
1977	-1e-05	-2e-05	-4e-05	4e-05	1e-05	5e-05	0	0	1
1978	-1e-05	-2e-05	-4e-05	4e-05	1e-05	5e-05	0	0	1
1979	-1e-05	-2e-05	-4e-05	4e-05	1e-05	5e-05	0	0	1
1980	-1e-05	-2e-05	-4e-05	4e-05	1e-05	5e-05	0	0	1
1981	-1e-05	-2e-05	-4e-05	4e-05	1e-05	5e-05	0	0	1
1982	0	0	0	6e-05	7e-05	2e-05	0	2e-05	1
1983	0	0	-2e-05	-5e-05	-3e-05	-2e-05	-2e-05	-3e-05	1
1984	1e-05	1e-05	1e-05	1e-05	-2e-05	-4e-05	0	-2e-05	1
1985	1e-05	1e-05	1e-05	1e-05	-2e-05	-4e-05	0	-2e-05	1
1986	1e-05	1e-05	1e-05	1e-05	-2e-05	-4e-05	0	-2e-05	1
1988	1e-05	1e-05	1e-05	1e-05	-2e-05	-4e-05	0	-2e-05	1
1989	1e-05	1e-05	1e-05	1e-05	-2e-05	-4e-05	0	-2e-05	1
1990	1e-05	1e-05	1e-05	1e-05	-2e-05	-4e-05	0	-2e-05	1
1991	1e-05	1e-05	1e-05	1e-05	-2e-05	-4e-05	0	-2e-05	1
1992	1e-05	1e-05	1e-05	1e-05	-2e-05	-4e-05	0	-2e-05	1
1993	1e-05	1e-05	1e-05	1e-05	-2e-05	-4e-05	0	-2e-05	1
1994	1e-05	1e-05	1e-05	1e-05	-2e-05	-4e-05	0	-2e-05	1
1995	1e-05	1e-05	1e-05	1e-05	-2e-05	-4e-05	0	-2e-05	1
1996	-1e-05	0	1e-05	1e-05	2e-05	-7e-05	-1e-05	0	1
1997	-1e-05	0	1e-05	1e-05	2e-05	-7e-05	-1e-05	0	1
1998	-1e-05	0	1e-05	1e-05	2e-05	-7e-05	-1e-05	0	1
1999	-1e-05	0	1e-05	1e-05	2e-05	-7e-05	-1e-05	0	1
2000	-1e-05	0	1e-05	1e-05	2e-05	-7e-05	-1e-05	0	1
2001	-1e-05	0	1e-05	1e-05	2e-05	-7e-05	-1e-05	0	1
2002	-1e-05	0	1e-05	1e-05	2e-05	-7e-05	-1e-05	0	1
2003	-1e-05	1e-05	1e-05	1e-05	-3e-05	-4e-05	-3e-05	0	1
2004	-1e-05	1e-05	1e-05	1e-05	-3e-05	-4e-05	-3e-05	0	1
2005	-1e-05	1e-05	1e-05	1e-05	-3e-05	-4e-05	-3e-05	0	1
2006	-1e-05	1e-05	1e-05	1e-05	-3e-05	-4e-05	-3e-05	0	1
2007	-1e-05	1e-05	1e-05	1e-05	-3e-05	-4e-05	-3e-05	0	1
2008	-1e-05	1e-05	1e-05	1e-05	-3e-05	-4e-05	-3e-05	0	1
2009	-1e-05	1e-05	1e-05	1e-05	-3e-05	-4e-05	-3e-05	0	1
2010	-1e-05	1e-05	1e-05	1e-05	-3e-05	-4e-05	-3e-05	0	1
2011	-1e-05	1e-05	1e-05	1e-05	-3e-05	-4e-05	-3e-05	0	1
2012	-1e-05	1e-05	1e-05	1e-05	-3e-05	-4e-05	-3e-05	0	1
2013	-1e-05	1e-05	1e-05	1e-05	-3e-05	-4e-05	-3e-05	0	1
2014	-1e-05	1e-05	1e-05	1e-05	-3e-05	-4e-05	-3e-05	0	1
2015	-1e-05	1e-05	1e-05	1e-05	-3e-05	-4e-05	-3e-05	0	1
2016	-1e-05	1e-05	1e-05	1e-05	-3e-05	-4e-05	-3e-05	0	1
2017	-1e-05	1e-05	1e-05	1e-05	-3e-05	-4e-05	-3e-05	0	1
2018	-1e-05	1e-05	1e-05	1e-05	-3e-05	-4e-05	-3e-05	0	1
2019	-2e-05	-1e-05	-6e-05	-8e-05	-1e-05	-3e-05	-1e-05	-1e-05	1
2020	-2e-05	-1e-05	-6e-05	-8e-05	-1e-05	-3e-05	-1e-05	-1e-05	1
2021	-2e-05	-1e-05	-6e-05	-8e-05	-1e-05	-3e-05	-1e-05	-1e-05	1
2022	-2e-05	-1e-05	-6e-05	-8e-05	-1e-05	-3e-05	-1e-05	-1e-05	1
2023	-2e-05	-1e-05	-6e-05	-8e-05	-1e-05	-3e-05	-1e-05	-1e-05	1
2024	-2e-05	-1e-05	-6e-05	-8e-05	-1e-05	-3e-05	-1e-05	-1e-05	1
2025	0	-2e-05	2e-05	1e-05	0	3e-05	-1e-05	2e-05	1
2026	-1e-05	3e-05	4e-05	1e-05	-1e-05	-1e-05	0	-1e-05	1
2027	-1e-05	3e-05	4e-05	1e-05	-1e-05	-1e-05	0	-1e-05	1
2028	-1e-05	3e-05	4e-05	1e-05	-1e-05	-1e-05	0	-1e-05	1
2029	-1e-05	3e-05	4e-05	1e-05	-1e-05	-1e-05	0	-1e-05	1
2030	-1e-05	3e-05	4e-05	1e-05	-1e-05	-1e-05	0	-1e-05	1
2031	-1e-05	3e-05	4e-05	1e-05	-1e-05	-1e-05	0	-1e-05	1
2032	-1e-05	3e-05	4e-05	1e-05	-1e-05	-1e-05	0	-1e-05	1
2033	-1e-05	3e-05	4e-05	1e-05	-1e-05	-1e-05	0	-1e-05	1
2034	-1e-05	3e-05	4e-05	1e-05	-1e-05	-1e-05	0	-1e-05	1
2035	-1e-05	3e-05	4e-05	1e-05	-1e-05	-1e-05	0	-1e-05	1
2036	-1e-05	3e-05	4e-05	1e-05	-1e-05	-1e-05	0	-1e-05	1
2038	-1e-05	3e-05	4e-05	1e-05	-1e-05	-1e-05	0	-1e-05	1
2039	-1e-05	3e-05	4e-05	1e-05	-1e-05	-1e-05	0	-1e-05	1
2040	-1e-05	3e-05	4e-05	1e-05	-1e-05	-1e-05	0	-1e-05	1
2041	-1e-05	3e-05	4e-05	1e-05	-1e-05	-1e-05	0	-1e-05	1
2042	0	-4e-05	-3e-05	-9e-05	-4e-05	-6e-05	-1e-05	-1e-05	1
2043	-2e-05	-3e-05	-8e-05	-7e-05	-2e-05	1e-05	-3e-05	-1e-05	1
2044	0	1e-05	3e-05	7e-05	-4e-05	-8e-05	0	-1e-05	1
2045	0	1e-05	3e-05	7e-05	-4e-05	-8e-05	0	-1e-05	1
2046	0	1e-05	3e-05	7e-05	-4e-05	-8e-05	0	-1e-05	1
2047	0	1e-05	3e-05	7e-05	-4e-05	-8e-05	0	-1e-05	1
2048	0	1e-05	3e-05	7e-05	-4e-05	-8e-05	0	-1e-05	1
2049	0	1e-05	3e-05	7e-05	-4e-05	-8e-05	0	-1e-05	1
2050	0	1e-05	3e-05	7e-05	-4e-05	-8e-05	0	-1e-05	1
2051	0	1e-05	3e-05	7e-05	-4e-05	-8e-05	0	-1e-05	1
2052	0	1e-05	3e-05	7e-05	-4e-05	-8e-05	0	-1e-05	1
2053	0	1e-05	3e-05	7e-05	-4e-05	-8e-05	0	-1e-05	1
2054	0	1e-05	3e-05	7e-05	-4e-05	-8e-05	0	-1e-05	1
2055	0	1e-05	3e-05	7e-05	-4e-05	-8e-05	0	-1e-05	1
2056	-1e-05	-1e-05	0	-1e-05	-1e-05	-8e-05	-4e-05	-2e-05	1
2057	-1e-05	-1e-05	0	-1e-05	-1e-05	-8e-05	-4e-05	-2e-05	1
2058	-1e-05	-1e-05	0	-1e-05	-1e-05	-8e-05	-4e-05	-2e-05	1
2059	-1e-05	-1e-05	0	-1e-05	-1e-05	-8e-05	-4e-05	-2e-05	1
2060	-1e-05	-1e-05	0	-1e-05	-1e-05	-8e-05	-4e-05	-2e-05	1
2061	-1e-05	-1e-05	0	-1e-05	-1e-05	-8e-05	-4e-05	-2e-05	1
2062	-1e-05	-1e-05	0	-1e-05	-1e-05	-8e-05	-4e-05	-2e-05	1
2063	-1e-05	-3e-05	0	-8e-05	-2e-05	1e-05	-1e-05	-3e-05	1
2064	-1e-05	-3e-05	0	-8e-05	-2e-05	1e-05	-1e-05	-3e-05	1
2065	-1e-05	-3e-05	0	-8e-05	-2e-05	1e-05	-1e-05	-3e-05	1
2066	-1e-05	-3e-05	0	-8e-05	-2e-05	1e-05	-1e-05	-3e-05	1
2067	-1e-05	-3e-05	0	-8e-05	-2e-05	1e-05	-1e-05	-3e-05	1
2068	-1e-05	-3e-05	0	-8e-05	-2e-05	1e-05	-1e-05	-3e-05	1
2069	-1e-05	-3e-05	0	-8e-05	-2e-05	1e-05	-1e-05	-3e-05	1
2070	-1e-05	-3e-05	0	-8e-05	-2e-05	1e-05	-1e-05	-3e-05	1
2071	-1e-05	-3e-05	0	-8e-05	-2e-05	1e-05	-1e-05	-3e-05	1
2072	-1e-05	-3e-05	0	-8e-05	-2e-05	1e-05	-1e-05	-3e-05	1
2073	-1e-05	-3e-05	0	-8e-05	-2e-05	1e-05	-1e-05	-3e-05	1
2074	-1e-05	-3e-05	0	-8e-05	-2e-05	1e-05	-1e-05	-3e-05	1
2075	-1e-05	-3e-05	0	-8e-05	-2e-05	1e-05	-1e-05	-3e-05	1
2076	-1e-05	-3e-05	0	-8e-05	-2e-05	1e-05	-1e-05	-3e-05	1
2077	-1e-05	-3e-05	0	-8e-05	-2e-05	1e-05	-1e-05	-3e-05	1
2078	-1e-05	-3e-05	0	-8e-05	-2e-05	1e-05	-1e-05	-3e-05	1
2079	-2e-05	-1e-05	-2e-05	-0.0001	-3e-05	-3e-05	-1e-05	-2e-05	1
2080	-2e-05	-1e-05	-2e-05	-0.0001	-3e-05	-3e-05	-1e-05	-2e-05	1
2081	-2e-05	-1e-05	-2e-05	-0.0001	-3e-05	-3e-05	-1e-05	-2e-05	1
2082	-2e-05	-1e-05	-2e-05	-0.0001	-3e-05	-3e-05	-1e-05	-2e-05	1
2083	-2e-05	-1e-05	-2e-05	-0.0001	-3e-05	-3e-05	-1e-05	-2e-05	1
2084	-2e-05	-1e-05	-2e-05	-0.0001	-3e-05	-3e-05	-1e-05	-2e-05	1
2085	-2e-05	-3e-05	-1e-05	-2e-05	0	-5e-05	-1e-05	-2e-05	1
2086	-2e-05	-1e-05	-2e-05	-8e-05	-1e-05	1e-05	0	-1e-05	1
2088	-2e-05	-1e-05	-2e-05	-8e-05	-1e-05	1e-05	0	-1e-05	1
2089	-2e-05	-1e-05	-2e-05	-8e-05	-1e-05	1e-05	0	-1e-05	1
2090	-2e-05	-1e-05	-2e-05	-8e-05	-1e-05	1e-05	0	-1e-05	1
2091	-2e-05	-1e-05	-2e-05	-8e-05	-1e-05	1e-05	0	-1e-05	1
2092	-2e-05	-1e-05	-2e-05	-8e-05	-1e-05	1e-05	0	-1e-05	1
2093	-2e-05	-1e-05	-2e-05	-8e-05	-1e-05	1e-05	0	-1e-05	1
2094	-2e-05	-1e-05	-2e-05	-8e-05	-1e-05	1e-05	0	-1e-05	1
2095	-2e-05	-1e-05	-2e-05	-8e-05	-1e-05	1e-05	0	-1e-05	1
2096	-2e-05	-1e-05	-2e-05	-8e-05	-1e-05	1e-05	0	-1e-05	1
2097	-2e-05	-1e-05	-2e-05	-8e-05	-1e-05	1e-05	0	-1e-05	1
2098	-2e-05	-1e-05	-2e-05	-8e-05	-1e-05	1e-05	0	-1e-05	1
2099	-2e-05	-1e-05	-2e-05	-8e-05	-1e-05	1e-05	0	-1e-05	1
2100	-2e-05	-1e-05	-2e-05	-8e-05	-1e-05	1e-05	0	-1e-05	1
2101	-2e-05	-1e-05	-2e-05	-8e-05	-1e-05	1e-05	0	-1e-05	1
2102	-2e-05	1e-05	4e-05	9e-05	-3e-05	5e-05	-2e-05	-3e-05	1
2103	-3e-05	-3e-05	-9e-05	-0.00011	-4e-05	-0.00016	-2e-05	-2e-05	1
2104	0	-1e-05	-1e-05	2e-05	1e-05	4e-05	1e-05	0	1
2105	0	-1e-05	-1e-05	2e-05	1e-05	4e-05	1e-05	0	1
2106	0	-1e-05	-1e-05	2e-05	1e-05	4e-05	1e-05	0	1
2107	0	-1e-05	-1e-05	2e-05	1e-05	4e-05	1e-05	0	1
2108	0	-1e-05	-1e-05	2e-05	1e-05	4e-05	1e-05	0	1
2109	0	-1e-05	-1e-05	2e-05	1e-05	4e-05	1e-05	0	1
2110	0	-1e-05	-1e-05	2e-05	1e-05	4e-05	1e-05	0	1
2111	0	-1e-05	-1e-05	2e-05	1e-05	4e-05	1e-05	0	1
2112	0	-1e-05	-1e-05	2e-05	1e-05	4e-05	1e-05	0	1
2113	0	-1e-05	-1e-05	2e-05	1e-05	4e-05	1e-05	0	1
2114	0	-1e-05	-1e-05	2e-05	1e-05	4e-05	1e-05	0	1
2115	0	-1e-05	-1e-05	2e-05	1e-05	4e-05	1e-05	0	1
2116	0	-1e-05	-1e-05	2e-05	1e-05	4e-05	1e-05	0	1
2117	0	-1e-05	-1e-05	2e-05	1e-05	4e-05	1e-05	0	1
2118	0	-1e-05	-1e-05	2e-05	1e-05	4e-05	1e-05	0	1
2119	0	-1e-05	-1e-05	2e-05	1e-05	4e-05	1e-05	0	1
2120	0	-1e-05	-1e-05	2e-05	1e-05	4e-05	1e-05	0	1
2121	0	-1e-05	-1e-05	2e-05	1e-05	4e-05	1e-05	0	1
2122	0	-1e-05	-1e-05	2e-05	1e-05	4e-05	1e-05	0	1
2123	0	-1e-05	-1e-05	2e-05	1e-05	4e-05	1e-05	0	1
2124	0	1e-05	0	4e-05	0	2e-05	-2e-05	-1e-05	1
2125	0	1e-05	0	4e-05	0	2e-05	-2e-05	-1e-05	1
2126	-1e-05	-3e-05	-3e-05	-1e-05	3e-05	-0.0001	-1e-05	-2e-05	1
2127	-1e-05	-3e-05	-3e-05	-1e-05	3e-05	-0.0001	-1e-05	-2e-05	1
2128	-1e-05	-3e-05	-3e-05	-1e-05	3e-05	-0.0001	-1e-05	-2e-05	1
2129	-1e-05	-3e-05	-3e-05	-1e-05	3e-05	-0.0001	-1e-05	-2e-05	1
2130	-1e-05	-3e-05	-3e-05	-1e-05	3e-05	-0.0001	-1e-05	-2e-05	1
2131	-1e-05	-3e-05	-3e-05	-1e-05	3e-05	-0.0001	-1e-05	-2e-05	1
2132	-1e-05	-3e-05	-3e-05	-1e-05	3e-05	-0.0001	-1e-05	-2e-05	1
2133	-1e-05	-3e-05	-3e-05	-1e-05	3e-05	-0.0001	-1e-05	-2e-05	1
2134	-1e-05	-3e-05	-3e-05	-1e-05	3e-05	-0.0001	-1e-05	-2e-05	1
2135	-1e-05	-3e-05	-3e-05	-1e-05	3e-05	-0.0001	-1e-05	-2e-05	1
2136	-1e-05	-3e-05	-3e-05	-1e-05	3e-05	-0.0001	-1e-05	-2e-05	1
2138	-1e-05	-3e-05	-3e-05	-1e-05	3e-05	-0.0001	-1e-05	-2e-05	1
2139	0	-2e-05	-8e-05	-4e-05	2e-05	3e-05	-1e-05	-1e-05	1
2140	0	-2e-05	-8e-05	-4e-05	2e-05	3e-05	-1e-05	-1e-05	1
2141	0	-2e-05	-8e-05	-4e-05	2e-05	3e-05	-1e-05	-1e-05	1
2142	0	-2e-05	-8e-05	-4e-05	2e-05	3e-05	-1e-05	-1e-05	1
2143	0	-2e-05	-8e-05	-4e-05	2e-05	3e-05	-1e-05	-1e-05	1
2144	0	-2e-05	-8e-05	-4e-05	2e-05	3e-05	-1e-05	-1e-05	1
2145	-2e-05	0	3e-05	1e-05	-2e-05	-1e-05	-4e-05	-2e-05	1
2146	1e-05	1e-05	3e-05	0.00011	-1e-05	0	1e-05	0	1
2147	1e-05	1e-05	3e-05	0.00011	-1e-05	0	1e-05	0	1
2148	1e-05	1e-05	3e-05	0.00011	-1e-05	0	1e-05	0	1
2149	1e-05	1e-05	3e-05	0.00011	-1e-05	0	1e-05	0	1
2150	1e-05	1e-05	3e-05	0.00011	-1e-05	0	1e-05	0	1
2151	1e-05	1e-05	3e-05	0.00011	-1e-05	0	1e-05	0	1
2152	1e-05	1e-05	3e-05	0.00011	-1e-05	0	1e-05	0	1
2153	1e-05	1e-05	3e-05	0.00011	-1e-05	0	1e-05	0	1
2154	1e-05	1e-05	3e-05	0.00011	-1e-05	0	1e-05	0	1
2155	1e-05	1e-05	3e-05	0.00011	-1e-05	0	1e-05	0	1
2156	1e-05	1e-05	3e-05	0.00011	-1e-05	0	1e-05	0	1
2157	1e-05	1e-05	3e-05	0.00011	-1e-05	0	1e-05	0	1
2158	1e-05	1e-05	3e-05	0.00011	-1e-05	0	1e-05	0	1
2159	1e-05	1e-05	3e-05	0.00011	-1e-05	0	1e-05	0	1
2160	1e-05	1e-05	3e-05	0.00011	-1e-05	0	1e-05	0	1
2161	1e-05	1e-05	3e-05	0.00011	-1e-05	0	1e-05	0	1
2162	0	-1e-05	-3e-05	-7e-05	0	-6e-05	0	0	1
2163	0	-1e-05	-3e-05	-7e-05	0	-6e-05	0	0	1
2164	0	-2e-05	2e-05	2e-05	0	-3e-05	0	-1e-05	1
2165	0	-2e-05	2e-05	2e-05	0	-3e-05	0	-1e-05	1
2166	0	-2e-05	2e-05	2e-05	0	-3e-05	0	-1e-05	1
2167	0	-2e-05	2e-05	2e-05	0	-3e-05	0	-1e-05	1
2168	0	-2e-05	2e-05	2e-05	0	-3e-05	0	-1e-05	1
2169	0	-2e-05	2e-05	2e-05	0	-3e-05	0	-1e-05	1
2170	0	-2e-05	2e-05	2e-05	0	-3e-05	0	-1e-05	1
2171	0	-2e-05	2e-05	2e-05	0	-3e-05	0	-1e-05	1
2172	0	-2e-05	2e-05	2e-05	0	-3e-05	0	-1e-05	1
2173	0	-2e-05	2e-05	2e-05	0	-3e-05	0	-1e-05	1
2174	0	-2e-05	2e-05	2e-05	0	-3e-05	0	-1e-05	1
2175	0	0	-2e-05	-4e-05	-2e-05	-3e-05	-2e-05	-2e-05	1
2176	-1e-05	-3e-05	-1e-05	-3e-05	0	0	-1e-05	-2e-05	1
2177	-1e-05	-3e-05	-1e-05	-3e-05	0	0	-1e-05	-2e-05	1
2178	-1e-05	-3e-05	-1e-05	-3e-05	0	0	-1e-05	-2e-05	1
2179	-1e-05	-3e-05	-1e-05	-3e-05	0	0	-1e-05	-2e-05	1
2180	-1e-05	-3e-05	-1e-05	-3e-05	0	0	-1e-05	-2e-05	1
2181	-1e-05	-3e-05	-1e-05	-3e-05	0	0	-1e-05	-2e-05	1
2182	-1e-05	-3e-05	-1e-05	-3e-05	0	0	-1e-05	-2e-05	1
2183	-1e-05	-3e-05	-1e-05	-3e-05	0	0	-1e-05	-2e-05	1
2184	-1e-05	-3e-05	-1e-05	-3e-05	0	0	-1e-05	-2e-05	1
2185	-1e-05	0	-1e-05	-4e-05	-3e-05	4e-05	1e-05	-1e-05	1
2186	-1e-05	0	-1e-05	-4e-05	-3e-05	4e-05	1e-05	-1e-05	1
2188	-1e-05	0	-1e-05	-4e-05	-3e-05	4e-05	1e-05	-1e-05	1
2189	-1e-05	0	-1e-05	-4e-05	-3e-05	4e-05	1e-05	-1e-05	1
2190	-1e-05	0	-1e-05	-4e-05	-3e-05	4e-05	1e-05	-1e-05	1
2191	-1e-05	0	-1e-05	-4e-05	-3e-05	4e-05	1e-05	-1e-05	1
2192	-1e-05	0	-1e-05	-4e-05	-3e-05	4e-05	1e-05	-1e-05	1
2193	-1e-05	0	-1e-05	-4e-05	-3e-05	4e-05	1e-05	-1e-05	1
2194	-1e-05	0	-1e-05	-4e-05	-3e-05	4e-05	1e-05	-1e-05	1
2195	-1e-05	0	-1e-05	-4e-05	-3e-05	4e-05	1e-05	-1e-05	1
2196	-1e-05	0	-1e-05	-4e-05	-3e-05	4e-05	1e-05	-1e-05	1
2197	-1e-05	0	-1e-05	-4e-05	-3e-05	4e-05	1e-05	-1e-05	1
2198	-1e-05	0	-1e-05	-4e-05	-3e-05	4e-05	1e-05	-1e-05	1
2199	-1e-05	0	0	7e-05	-2e-05	-5e-05	-2e-05	-2e-05	1
2200	-1e-05	0	0	7e-05	-2e-05	-5e-05	-2e-05	-2e-05	1
2201	-1e-05	0	0	7e-05	-2e-05	-5e-05	-2e-05	-2e-05	1
2202	-1e-05	0	0	7e-05	-2e-05	-5e-05	-2e-05	-2e-05	1
2203	-1e-05	0	0	7e-05	-2e-05	-5e-05	-2e-05	-2e-05	1
2204	-1e-05	0	0	7e-05	-2e-05	-5e-05	-2e-05	-2e-05	1
2205	-1e-05	-2e-05	-1e-05	0	-1e-05	-0.00015	-3e-05	-2e-05	1
2206	-1e-05	-2e-05	-1e-05	0	-1e-05	-0.00015	-3e-05	-2e-05	1
2208	-1e-05	-2e-05	-1e-05	0	-1e-05	-0.00015	-3e-05	-2e-05	1
2209	-1e-05	-2e-05	-1e-05	0	-1e-05	-0.00015	-3e-05	-2e-05	1
2210	-1e-05	-2e-05	-1e-05	0	-1e-05	-0.00015	-3e-05	-2e-05	1
2211	-1e-05	-2e-05	-1e-05	0	-1e-05	-0.00015	-3e-05	-2e-05	1
2212	-1e-05	-2e-05	-1e-05	0	-1e-05	-0.00015	-3e-05	-2e-05	1
2213	-1e-05	-2e-05	-1e-05	0	-1e-05	-0.00015	-3e-05	-2e-05	1
2214	-1e-05	-2e-05	-1e-05	0	-1e-05	-0.00015	-3e-05	-2e-05	1
2215	-1e-05	-2e-05	-1e-05	0	-1e-05	-0.00015	-3e-05	-2e-05	1
2216	-1e-05	-2e-05	-1e-05	0	-1e-05	-0.00015	-3e-05	-2e-05	1
2217	-1e-05	-2e-05	-1e-05	0	-1e-05	-0.00015	-3e-05	-2e-05	1
2218	-1e-05	-2e-05	-1e-05	0	-1e-05	-0.00015	-3e-05	-2e-05	1
2219	-1e-05	-2e-05	-1e-05	0	-1e-05	-0.00015	-3e-05	-2e-05	1
2220	-1e-05	-2e-05	-1e-05	0	-1e-05	-0.00015	-3e-05	-2e-05	1
2221	-1e-05	-2e-05	-1e-05	0	-1e-05	-0.00015	-3e-05	-2e-05	1
2222	0	0	2e-05	2e-05	-8e-05	-9e-05	-2e-05	-2e-05	1
2223	-1e-05	-2e-05	-9e-05	-3e-05	-3e-05	0	-2e-05	-2e-05	1
2224	-1e-05	-2e-05	-9e-05	-3e-05	-3e-05	0	-2e-05	-2e-05	1
2225	-1e-05	-2e-05	-9e-05	-3e-05	-3e-05	0	-2e-05	-2e-05	1
2226	-1e-05	-2e-05	-9e-05	-3e-05	-3e-05	0	-2e-05	-2e-05	1
2227	-1e-05	-2e-05	-9e-05	-3e-05	-3e-05	0	-2e-05	-2e-05	1
2228	-1e-05	-2e-05	-9e-05	-3e-05	-3e-05	0	-2e-05	-2e-05	1
2229	-1e-05	-2e-05	-9e-05	-3e-05	-3e-05	0	-2e-05	-2e-05	1
2230	-1e-05	-2e-05	-9e-05	-3e-05	-3e-05	0	-2e-05	-2e-05	1
2231	-1e-05	-2e-05	-9e-05	-3e-05	-3e-05	0	-2e-05	-2e-05	1
2232	-1e-05	-2e-05	-9e-05	-3e-05	-3e-05	0	-2e-05	-2e-05	1
2233	-1e-05	-2e-05	-9e-05	-3e-05	-3e-05	0	-2e-05	-2e-05	1
2234	-1e-05	-2e-05	-9e-05	-3e-05	-3e-05	0	-2e-05	-2e-05	1
2235	-1e-05	-2e-05	-9e-05	-3e-05	-3e-05	0	-2e-05	-2e-05	1
2236	0	2e-05	7e-05	3e-05	0	3e-05	-1e-05	0	1
2238	-2e-05	-3e-05	-5e-05	-1e-05	-3e-05	-2e-05	-2e-05	0	1
2239	-2e-05	-3e-05	-5e-05	-1e-05	-3e-05	-2e-05	-2e-05	0	1
2240	-2e-05	-3e-05	-5e-05	-1e-05	-3e-05	-2e-05	-2e-05	0	1
2241	-2e-05	-3e-05	-5e-05	-1e-05	-3e-05	-2e-05	-2e-05	0	1
2242	-2e-05	-3e-05	-5e-05	-1e-05	-3e-05	-2e-05	-2e-05	0	1
2243	-2e-05	-3e-05	-5e-05	-1e-05	-3e-05	-2e-05	-2e-05	0	1
2244	0	-2e-05	0	1e-05	3e-05	3e-05	0	-2e-05	1
2245	-1e-05	-2e-05	0	-3e-05	-5e-05	0	-1e-05	-1e-05	1
2246	-1e-05	-2e-05	0	-3e-05	-5e-05	0	-1e-05	-1e-05	1
2247	-1e-05	-2e-05	0	-3e-05	-5e-05	0	-1e-05	-1e-05	1
2248	-1e-05	-2e-05	0	-3e-05	-5e-05	0	-1e-05	-1e-05	1
2249	-1e-05	-2e-05	0	-3e-05	-5e-05	0	-1e-05	-1e-05	1
2250	-1e-05	-2e-05	0	-3e-05	-5e-05	0	-1e-05	-1e-05	1
2251	-1e-05	-2e-05	0	-3e-05	-5e-05	0	-1e-05	-1e-05	1
2252	-1e-05	-2e-05	0	-3e-05	-5e-05	0	-1e-05	-1e-05	1
2253	-1e-05	-2e-05	0	-3e-05	-5e-05	0	-1e-05	-1e-05	1
2254	-1e-05	-2e-05	0	-3e-05	-5e-05	0	-1e-05	-1e-05	1
2255	-1e-05	-2e-05	0	-3e-05	-5e-05	0	-1e-05	-1e-05	1
2256	-1e-05	-2e-05	0	-3e-05	-5e-05	0	-1e-05	-1e-05	1
2257	-1e-05	-2e-05	0	-3e-05	-5e-05	0	-1e-05	-1e-05	1
2258	-1e-05	-2e-05	0	-3e-05	-5e-05	0	-1e-05	-1e-05	1
2259	0	-2e-05	0	3e-05	0	-1e-05	-2e-05	-1e-05	1
2260	0	-2e-05	0	3e-05	0	-1e-05	-2e-05	-1e-05	1
2261	0	-2e-05	0	3e-05	0	-1e-05	-2e-05	-1e-05	1
2262	0	-2e-05	0	3e-05	0	-1e-05	-2e-05	-1e-05	1
2263	0	-2e-05	0	3e-05	0	-1e-05	-2e-05	-1e-05	1
2264	0	-2e-05	0	3e-05	0	-1e-05	-2e-05	-1e-05	1
2265	0	-2e-05	0	3e-05	0	-1e-05	-2e-05	-1e-05	1
2266	-2e-05	0	1e-05	5e-05	0	4e-05	-1e-05	-1e-05	1
2267	-2e-05	0	1e-05	5e-05	0	4e-05	-1e-05	-1e-05	1
2268	-2e-05	0	1e-05	5e-05	0	4e-05	-1e-05	-1e-05	1
2269	-2e-05	0	1e-05	5e-05	0	4e-05	-1e-05	-1e-05	1
2270	-2e-05	0	1e-05	5e-05	0	4e-05	-1e-05	-1e-05	1
2271	-2e-05	0	1e-05	5e-05	0	4e-05	-1e-05	-1e-05	1
2272	-2e-05	0	1e-05	5e-05	0	4e-05	-1e-05	-1e-05	1
2273	-2e-05	0	1e-05	5e-05	0	4e-05	-1e-05	-1e-05	1
2274	-2e-05	0	1e-05	5e-05	0	4e-05	-1e-05	-1e-05	1
2275	-2e-05	0	1e-05	5e-05	0	4e-05	-1e-05	-1e-05	1
2276	-2e-05	0	1e-05	5e-05	0	4e-05	-1e-05	-1e-05	1
2277	-2e-05	0	1e-05	5e-05	0	4e-05	-1e-05	-1e-05	1
2278	-2e-05	0	1e-05	5e-05	0	4e-05	-1e-05	-1e-05	1
2279	-2e-05	0	1e-05	5e-05	0	4e-05	-1e-05	-1e-05	1
2280	-2e-05	0	1e-05	5e-05	0	4e-05	-1e-05	-1e-05	1
2281	-2e-05	0	1e-05	5e-05	0	4e-05	-1e-05	-1e-05	1
2282	0	1e-05	-4e-05	-5e-05	1e-05	-5e-05	-3e-05	-2e-05	1
2283	0	1e-05	-4e-05	-5e-05	1e-05	-5e-05	-3e-05	-2e-05	1
2284	-2e-05	-3e-05	-1e-05	-2e-05	4e-05	-2e-05	-2e-05	-1e-05	1
2285	-2e-05	-3e-05	-1e-05	-2e-05	4e-05	-2e-05	-2e-05	-1e-05	1
2286	-2e-05	-3e-05	-1e-05	-2e-05	4e-05	-2e-05	-2e-05	-1e-05	1
2288	-2e-05	-3e-05	-1e-05	-2e-05	4e-05	-2e-05	-2e-05	-1e-05	1
2289	-2e-05	-3e-05	-1e-05	-2e-05	4e-05	-2e-05	-2e-05	-1e-05	1
2290	-2e-05	-3e-05	-1e-05	-2e-05	4e-05	-2e-05	-2e-05	-1e-05	1
2291	-2e-05	-3e-05	-1e-05	-2e-05	4e-05	-2e-05	-2e-05	-1e-05	1
2292	-2e-05	-3e-05	-1e-05	-2e-05	4e-05	-2e-05	-2e-05	-1e-05	1
2293	-2e-05	-3e-05	-1e-05	-2e-05	4e-05	-2e-05	-2e-05	-1e-05	1
2294	-2e-05	-3e-05	-1e-05	-2e-05	4e-05	-2e-05	-2e-05	-1e-05	1
2295	-2e-05	-3e-05	-1e-05	-2e-05	4e-05	-2e-05	-2e-05	-1e-05	1
2296	-2e-05	-3e-05	-1e-05	-2e-05	4e-05	-2e-05	-2e-05	-1e-05	1
2297	-2e-05	-3e-05	-1e-05	-2e-05	4e-05	-2e-05	-2e-05	-1e-05	1
2298	-2e-05	-3e-05	-1e-05	-2e-05	4e-05	-2e-05	-2e-05	-1e-05	1
2299	-2e-05	-3e-05	-1e-05	-2e-05	4e-05	-2e-05	-2e-05	-1e-05	1
2300	-2e-05	-3e-05	-1e-05	-2e-05	4e-05	-2e-05	-2e-05	-1e-05	1
2301	-2e-05	-3e-05	-1e-05	-2e-05	4e-05	-2e-05	-2e-05	-1e-05	1
2302	-2e-05	-3e-05	-1e-05	-2e-05	4e-05	-2e-05	-2e-05	-1e-05	1
2303	-2e-05	-3e-05	-1e-05	-2e-05	4e-05	-2e-05	-2e-05	-1e-05	1
2304	0	-1e-05	1e-05	2e-05	-4e-05	-5e-05	-2e-05	0	1
2305	-1e-05	-2e-05	-7e-05	-3e-05	-1e-05	2e-05	1e-05	-1e-05	1
2306	-1e-05	-2e-05	-7e-05	-3e-05	-1e-05	2e-05	1e-05	-1e-05	1
2307	-1e-05	-2e-05	-7e-05	-3e-05	-1e-05	2e-05	1e-05	-1e-05	1
2308	-1e-05	-2e-05	-7e-05	-3e-05	-1e-05	2e-05	1e-05	-1e-05	1
2309	-1e-05	-2e-05	-7e-05	-3e-05	-1e-05	2e-05	1e-05	-1e-05	1
2310	-1e-05	-2e-05	-7e-05	-3e-05	-1e-05	2e-05	1e-05	-1e-05	1
2311	-1e-05	-2e-05	-7e-05	-3e-05	-1e-05	2e-05	1e-05	-1e-05	1
2312	-1e-05	-2e-05	-7e-05	-3e-05	-1e-05	2e-05	1e-05	-1e-05	1
2313	-1e-05	-2e-05	-7e-05	-3e-05	-1e-05	2e-05	1e-05	-1e-05	1
2314	-1e-05	-2e-05	-7e-05	-3e-05	-1e-05	2e-05	1e-05	-1e-05	1
2315	-1e-05	-2e-05	-7e-05	-3e-05	-1e-05	2e-05	1e-05	-1e-05	1
2316	-1e-05	-2e-05	-7e-05	-3e-05	-1e-05	2e-05	1e-05	-1e-05	1
2317	-1e-05	-2e-05	-7e-05	-3e-05	-1e-05	2e-05	1e-05	-1e-05	1
2318	-1e-05	-2e-05	-7e-05	-3e-05	-1e-05	2e-05	1e-05	-1e-05	1
2319	-1e-05	-2e-05	-7e-05	-3e-05	-1e-05	2e-05	1e-05	-1e-05	1
2320	0	-1e-05	1e-05	-4e-05	-3e-05	4e-05	1e-05	1e-05	1
2321	0	-1e-05	1e-05	-4e-05	-3e-05	4e-05	1e-05	1e-05	1
2322	0	-1e-05	1e-05	-4e-05	-3e-05	4e-05	1e-05	1e-05	1
2323	0	-1e-05	1e-05	-4e-05	-3e-05	4e-05	1e-05	1e-05	1
2324	0	-1e-05	1e-05	-4e-05	-3e-05	4e-05	1e-05	1e-05	1
2325	-1e-05	1e-05	-1e-05	-0.0001	0	0	2e-05	-1e-05	1
2326	-1e-05	1e-05	-1e-05	-0.0001	0	0	2e-05	-1e-05	1
2327	-1e-05	1e-05	-1e-05	-0.0001	0	0	2e-05	-1e-05	1
2328	-1e-05	1e-05	-1e-05	-0.0001	0	0	2e-05	-1e-05	1
2329	-1e-05	1e-05	-1e-05	-0.0001	0	0	2e-05	-1e-05	1
2330	-1e-05	1e-05	-1e-05	-0.0001	0	0	2e-05	-1e-05	1
2332	-1e-05	1e-05	-1e-05	-0.0001	0	0	2e-05	-1e-05	1
2333	-1e-05	1e-05	-1e-05	-0.0001	0	0	2e-05	-1e-05	1
2334	-1e-05	1e-05	-1e-05	-0.0001	0	0	2e-05	-1e-05	1
2335	-1e-05	1e-05	-1e-05	-0.0001	0	0	2e-05	-1e-05	1
2336	-1e-05	1e-05	-1e-05	-0.0001	0	0	2e-05	-1e-05	1
2338	-1e-05	1e-05	-1e-05	-0.0001	0	0	2e-05	-1e-05	1
2339	-1e-05	1e-05	-1e-05	-0.0001	0	0	2e-05	-1e-05	1
2340	-1e-05	1e-05	-1e-05	-0.0001	0	0	2e-05	-1e-05	1
2341	0	-1e-05	-4e-05	-0.00015	-2e-05	-3e-05	0	-2e-05	1
2342	0	-3e-05	-1e-05	2e-05	-7e-05	-6e-05	-1e-05	-1e-05	1
2343	0	-3e-05	-1e-05	2e-05	-7e-05	-6e-05	-1e-05	-1e-05	1
