time	channel1	channel2	channel3	channel4	channel5	channel6	channel7	channel8	class
1	5e-05	0	-6e-05	-2e-05	0	0	0	1e-05	0
16	-3e-05	-5e-05	-1e-05	-7e-05	-0.00031	-3e-05	0	-1e-05	0
17	-3e-05	-5e-05	-1e-05	-7e-05	-0.00031	-3e-05	0	-1e-05	0
18	-3e-05	-5e-05	-1e-05	-7e-05	-0.00031	-3e-05	0	-1e-05	0
19	3e-05	0	-2e-05	2e-05	-0.00033	-4e-05	-2e-05	-2e-05	0
20	3e-05	0	-2e-05	2e-05	-0.00033	-4e-05	-2e-05	-2e-05	0
21	3e-05	0	-2e-05	2e-05	-0.00033	-4e-05	-2e-05	-2e-05	0
22	3e-05	0	-2e-05	2e-05	-0.00033	-4e-05	-2e-05	-2e-05	0
23	3e-05	0	-2e-05	2e-05	-0.00033	-4e-05	-2e-05	-2e-05	0
24	3e-05	0	-2e-05	2e-05	-0.00033	-4e-05	-2e-05	-2e-05	0
25	3e-05	0	-2e-05	2e-05	-0.00033	-4e-05	-2e-05	-2e-05	0
26	-0.00015	-6e-05	-4e-05	7e-05	-4e-05	0	-1e-05	-2e-05	0
27	-0.00015	-6e-05	-4e-05	7e-05	-4e-05	0	-1e-05	-2e-05	0
28	-0.00017	-6e-05	0	0.0001	-5e-05	-1e-05	-1e-05	-4e-05	0
29	-0.00017	-6e-05	0	0.0001	-5e-05	-1e-05	-1e-05	-4e-05	0
30	-0.00017	-6e-05	0	0.0001	-5e-05	-1e-05	-1e-05	-4e-05	0
31	-0.00017	-6e-05	0	0.0001	-5e-05	-1e-05	-1e-05	-4e-05	0
33	-0.00017	-6e-05	0	0.0001	-5e-05	-1e-05	-1e-05	-4e-05	0
34	-0.00017	-6e-05	0	0.0001	-5e-05	-1e-05	-1e-05	-4e-05	0
35	-0.00017	-6e-05	0	0.0001	-5e-05	-1e-05	-1e-05	-4e-05	0
43	-0.00017	-6e-05	0	0.0001	-5e-05	-1e-05	-1e-05	-4e-05	0
45	-0.00017	-6e-05	0	0.0001	-5e-05	-1e-05	-1e-05	-4e-05	0
46	-0.00017	-6e-05	0	0.0001	-5e-05	-1e-05	-1e-05	-4e-05	0
47	-0.00017	-6e-05	0	0.0001	-5e-05	-1e-05	-1e-05	-4e-05	0
48	-0.00017	-6e-05	0	0.0001	-5e-05	-1e-05	-1e-05	-4e-05	0
49	3e-05	2e-05	0	-0.0001	-3e-05	-1e-05	-1e-05	-1e-05	0
50	-1e-05	-1e-05	0	2e-05	5e-05	-4e-05	0	-1e-05	0
51	-4e-05	-3e-05	1e-05	1e-05	0.00016	1e-05	0	0	0
52	-4e-05	-3e-05	1e-05	1e-05	0.00016	1e-05	0	0	0
53	-4e-05	-3e-05	1e-05	1e-05	0.00016	1e-05	0	0	0
54	-4e-05	-3e-05	1e-05	1e-05	0.00016	1e-05	0	0	0
55	-4e-05	-3e-05	1e-05	1e-05	0.00016	1e-05	0	0	0
56	-4e-05	-3e-05	1e-05	1e-05	0.00016	1e-05	0	0	0
57	-4e-05	-3e-05	1e-05	1e-05	0.00016	1e-05	0	0	0
58	-4e-05	-3e-05	1e-05	1e-05	0.00016	1e-05	0	0	0
59	-4e-05	-3e-05	1e-05	1e-05	0.00016	1e-05	0	0	0
60	-4e-05	-3e-05	1e-05	1e-05	0.00016	1e-05	0	0	0
61	-4e-05	-3e-05	1e-05	1e-05	0.00016	1e-05	0	0	0
62	-4e-05	-3e-05	1e-05	1e-05	0.00016	1e-05	0	0	0
63	-4e-05	-3e-05	1e-05	1e-05	0.00016	1e-05	0	0	0
64	-4e-05	-3e-05	1e-05	1e-05	0.00016	1e-05	0	0	0
65	-4e-05	-3e-05	1e-05	1e-05	0.00016	1e-05	0	0	0
66	-4e-05	-3e-05	1e-05	1e-05	0.00016	1e-05	0	0	0
67	-4e-05	-3e-05	1e-05	1e-05	0.00016	1e-05	0	0	0
68	-4e-05	-3e-05	1e-05	1e-05	0.00016	1e-05	0	0	0
69	-4e-05	-3e-05	1e-05	1e-05	0.00016	1e-05	0	0	0
70	-4e-05	-3e-05	1e-05	1e-05	0.00016	1e-05	0	0	0
71	9e-05	1e-05	-2e-05	1e-05	0.00017	-2e-05	-1e-05	0	0
72	9e-05	1e-05	-2e-05	1e-05	0.00017	-2e-05	-1e-05	0	0
73	3e-05	4e-05	3e-05	4e-05	5e-05	-3e-05	0	-1e-05	0
74	3e-05	4e-05	3e-05	4e-05	5e-05	-3e-05	0	-1e-05	0
75	3e-05	4e-05	3e-05	4e-05	5e-05	-3e-05	0	-1e-05	0
76	3e-05	4e-05	3e-05	4e-05	5e-05	-3e-05	0	-1e-05	0
77	3e-05	4e-05	3e-05	4e-05	5e-05	-3e-05	0	-1e-05	0
78	3e-05	4e-05	3e-05	4e-05	5e-05	-3e-05	0	-1e-05	0
79	3e-05	4e-05	3e-05	4e-05	5e-05	-3e-05	0	-1e-05	0
80	3e-05	4e-05	3e-05	4e-05	5e-05	-3e-05	0	-1e-05	0
81	3e-05	4e-05	3e-05	4e-05	5e-05	-3e-05	0	-1e-05	0
82	3e-05	4e-05	3e-05	4e-05	5e-05	-3e-05	0	-1e-05	0
83	3e-05	4e-05	3e-05	4e-05	5e-05	-3e-05	0	-1e-05	0
84	3e-05	4e-05	3e-05	4e-05	5e-05	-3e-05	0	-1e-05	0
85	3e-05	4e-05	3e-05	4e-05	5e-05	-3e-05	0	-1e-05	0
86	-8e-05	-5e-05	-7e-05	-0.00017	0.00025	-1e-05	-2e-05	-4e-05	0
91	1e-05	1e-05	1e-05	0	4e-05	-2e-05	0	0	0
92	1e-05	1e-05	1e-05	0	4e-05	-2e-05	0	0	0
93	1e-05	1e-05	1e-05	0	4e-05	-2e-05	0	0	0
94	1e-05	1e-05	1e-05	0	4e-05	-2e-05	0	0	0
95	1e-05	1e-05	1e-05	0	4e-05	-2e-05	0	0	0
96	1e-05	1e-05	1e-05	0	4e-05	-2e-05	0	0	0
97	1e-05	1e-05	1e-05	0	4e-05	-2e-05	0	0	0
98	1e-05	1e-05	1e-05	0	4e-05	-2e-05	0	0	0
99	1e-05	1e-05	1e-05	0	4e-05	-2e-05	0	0	0
100	1e-05	1e-05	1e-05	0	4e-05	-2e-05	0	0	0
101	1e-05	1e-05	1e-05	0	4e-05	-2e-05	0	0	0
102	1e-05	1e-05	1e-05	0	4e-05	-2e-05	0	0	0
103	1e-05	1e-05	1e-05	0	4e-05	-2e-05	0	0	0
104	1e-05	1e-05	1e-05	0	4e-05	-2e-05	0	0	0
105	1e-05	1e-05	1e-05	0	4e-05	-2e-05	0	0	0
106	1e-05	1e-05	1e-05	0	4e-05	-2e-05	0	0	0
107	1e-05	1e-05	1e-05	0	4e-05	-2e-05	0	0	0
108	1e-05	1e-05	1e-05	0	4e-05	-2e-05	0	0	0
109	-3e-05	2e-05	-2e-05	-0.0001	-1e-05	-1e-05	0	1e-05	0
110	2e-05	0	1e-05	0	4e-05	2e-05	-1e-05	2e-05	0
111	-3e-05	-5e-05	0	1e-05	-5e-05	-2e-05	-3e-05	-2e-05	0
112	-3e-05	-5e-05	0	1e-05	-5e-05	-2e-05	-3e-05	-2e-05	0
113	-3e-05	-5e-05	0	1e-05	-5e-05	-2e-05	-3e-05	-2e-05	0
114	-3e-05	-5e-05	0	1e-05	-5e-05	-2e-05	-3e-05	-2e-05	0
115	-3e-05	-5e-05	0	1e-05	-5e-05	-2e-05	-3e-05	-2e-05	0
116	-3e-05	-5e-05	0	1e-05	-5e-05	-2e-05	-3e-05	-2e-05	0
117	-3e-05	-5e-05	0	1e-05	-5e-05	-2e-05	-3e-05	-2e-05	0
118	-3e-05	-5e-05	0	1e-05	-5e-05	-2e-05	-3e-05	-2e-05	0
119	-3e-05	-5e-05	0	1e-05	-5e-05	-2e-05	-3e-05	-2e-05	0
120	-3e-05	-5e-05	0	1e-05	-5e-05	-2e-05	-3e-05	-2e-05	0
121	-3e-05	-5e-05	0	1e-05	-5e-05	-2e-05	-3e-05	-2e-05	0
122	-3e-05	-5e-05	0	1e-05	-5e-05	-2e-05	-3e-05	-2e-05	0
123	-3e-05	-5e-05	0	1e-05	-5e-05	-2e-05	-3e-05	-2e-05	0
124	-3e-05	-5e-05	0	1e-05	-5e-05	-2e-05	-3e-05	-2e-05	0
125	-3e-05	-5e-05	0	1e-05	-5e-05	-2e-05	-3e-05	-2e-05	0
126	-3e-05	-5e-05	0	1e-05	-5e-05	-2e-05	-3e-05	-2e-05	0
127	-3e-05	-5e-05	0	1e-05	-5e-05	-2e-05	-3e-05	-2e-05	0
128	-3e-05	-5e-05	0	1e-05	-5e-05	-2e-05	-3e-05	-2e-05	0
129	-3e-05	-5e-05	0	1e-05	-5e-05	-2e-05	-3e-05	-2e-05	0
130	-3e-05	-5e-05	0	1e-05	-5e-05	-2e-05	-3e-05	-2e-05	0
131	-3e-05	-5e-05	0	1e-05	-5e-05	-2e-05	-3e-05	-2e-05	0
132	-3e-05	-5e-05	0	1e-05	-5e-05	-2e-05	-3e-05	-2e-05	0
133	3e-05	0	2e-05	2e-05	-0.00029	0	-1e-05	-1e-05	0
134	-0.00015	-3e-05	0	0.00011	8e-05	0	0	-1e-05	0
135	-0.00015	-3e-05	0	0.00011	8e-05	0	0	-1e-05	0
136	-0.00015	-3e-05	0	0.00011	8e-05	0	0	-1e-05	0
139	-0.00015	-3e-05	0	0.00011	8e-05	0	0	-1e-05	0
140	-0.00015	-3e-05	0	0.00011	8e-05	0	0	-1e-05	0
141	-0.00015	-3e-05	0	0.00011	8e-05	0	0	-1e-05	0
142	-0.00015	-3e-05	0	0.00011	8e-05	0	0	-1e-05	0
143	-0.00015	-3e-05	0	0.00011	8e-05	0	0	-1e-05	0
144	-0.00015	-3e-05	0	0.00011	8e-05	0	0	-1e-05	0
145	-0.00015	-3e-05	0	0.00011	8e-05	0	0	-1e-05	0
146	-0.00015	-3e-05	0	0.00011	8e-05	0	0	-1e-05	0
147	-0.00015	-3e-05	0	0.00011	8e-05	0	0	-1e-05	0
148	-0.00015	-3e-05	0	0.00011	8e-05	0	0	-1e-05	0
149	-0.00015	-3e-05	0	0.00011	8e-05	0	0	-1e-05	0
150	-0.00015	-3e-05	0	0.00011	8e-05	0	0	-1e-05	0
151	-0.00015	-3e-05	0	0.00011	8e-05	0	0	-1e-05	0
152	-0.00015	-3e-05	0	0.00011	8e-05	0	0	-1e-05	0
153	-0.00015	-3e-05	0	0.00011	8e-05	0	0	-1e-05	0
154	-0.00014	0	-1e-05	-0.0001	3e-05	-1e-05	-1e-05	-3e-05	0
155	4e-05	1e-05	-1e-05	2e-05	0.00015	2e-05	0	0	0
156	4e-05	1e-05	-1e-05	2e-05	0.00015	2e-05	0	0	0
157	4e-05	1e-05	-1e-05	2e-05	0.00015	2e-05	0	0	0
158	4e-05	1e-05	-1e-05	2e-05	0.00015	2e-05	0	0	0
159	4e-05	1e-05	-1e-05	2e-05	0.00015	2e-05	0	0	0
160	4e-05	1e-05	-1e-05	2e-05	0.00015	2e-05	0	0	0
161	4e-05	1e-05	-1e-05	2e-05	0.00015	2e-05	0	0	0
162	4e-05	1e-05	-1e-05	2e-05	0.00015	2e-05	0	0	0
163	4e-05	1e-05	-1e-05	2e-05	0.00015	2e-05	0	0	0
164	4e-05	1e-05	-1e-05	2e-05	0.00015	2e-05	0	0	0
165	4e-05	1e-05	-1e-05	2e-05	0.00015	2e-05	0	0	0
166	4e-05	1e-05	-1e-05	2e-05	0.00015	2e-05	0	0	0
167	4e-05	1e-05	-1e-05	2e-05	0.00015	2e-05	0	0	0
168	4e-05	1e-05	-1e-05	2e-05	0.00015	2e-05	0	0	0
169	4e-05	1e-05	-1e-05	2e-05	0.00015	2e-05	0	0	0
170	4e-05	1e-05	-1e-05	2e-05	0.00015	2e-05	0	0	0
171	4e-05	1e-05	-1e-05	2e-05	0.00015	2e-05	0	0	0
172	4e-05	1e-05	-1e-05	2e-05	0.00015	2e-05	0	0	0
173	4e-05	1e-05	-1e-05	2e-05	0.00015	2e-05	0	0	0
174	4e-05	1e-05	-1e-05	2e-05	0.00015	2e-05	0	0	0
175	4e-05	1e-05	-1e-05	2e-05	0.00015	2e-05	0	0	0
176	4e-05	1e-05	-1e-05	2e-05	0.00015	2e-05	0	0	0
177	4e-05	1e-05	-1e-05	2e-05	0.00015	2e-05	0	0	0
178	4e-05	1e-05	-1e-05	2e-05	0.00015	2e-05	0	0	0
179	4e-05	1e-05	-1e-05	2e-05	0.00015	2e-05	0	0	0
180	4e-05	1e-05	-1e-05	2e-05	0.00015	2e-05	0	0	0
181	4e-05	1e-05	-1e-05	2e-05	0.00015	2e-05	0	0	0
182	4e-05	1e-05	-1e-05	2e-05	0.00015	2e-05	0	0	0
183	4e-05	1e-05	-1e-05	2e-05	0.00015	2e-05	0	0	0
184	4e-05	1e-05	-1e-05	2e-05	0.00015	2e-05	0	0	0
185	-3e-05	-7e-05	-1e-05	2e-05	1e-05	-1e-05	-1e-05	-1e-05	0
186	-4e-05	0	-2e-05	-0.00012	-5e-05	-3e-05	-2e-05	-1e-05	0
189	-0.00012	-6e-05	0	0.00011	0.0001	2e-05	-2e-05	-2e-05	0
190	-0.00012	-6e-05	0	0.00011	0.0001	2e-05	-2e-05	-2e-05	0
191	-0.00012	-6e-05	0	0.00011	0.0001	2e-05	-2e-05	-2e-05	0
192	1e-05	-2e-05	-3e-05	-8e-05	0	-3e-05	-1e-05	-1e-05	0
193	1e-05	-2e-05	-3e-05	-8e-05	0	-3e-05	-1e-05	-1e-05	0
194	1e-05	-2e-05	-3e-05	-8e-05	0	-3e-05	-1e-05	-1e-05	0
195	1e-05	-2e-05	-3e-05	-8e-05	0	-3e-05	-1e-05	-1e-05	0
196	1e-05	-2e-05	-3e-05	-8e-05	0	-3e-05	-1e-05	-1e-05	0
197	1e-05	-2e-05	-3e-05	-8e-05	0	-3e-05	-1e-05	-1e-05	0
198	1e-05	-2e-05	-3e-05	-8e-05	0	-3e-05	-1e-05	-1e-05	0
199	1e-05	-2e-05	-3e-05	-8e-05	0	-3e-05	-1e-05	-1e-05	0
200	1e-05	-2e-05	-3e-05	-8e-05	0	-3e-05	-1e-05	-1e-05	0
201	1e-05	-2e-05	-3e-05	-8e-05	0	-3e-05	-1e-05	-1e-05	0
202	1e-05	-2e-05	-3e-05	-8e-05	0	-3e-05	-1e-05	-1e-05	0
203	1e-05	-2e-05	-3e-05	-8e-05	0	-3e-05	-1e-05	-1e-05	0
204	1e-05	-2e-05	-3e-05	-8e-05	0	-3e-05	-1e-05	-1e-05	0
205	1e-05	-2e-05	-3e-05	-8e-05	0	-3e-05	-1e-05	-1e-05	0
206	1e-05	-2e-05	-3e-05	-8e-05	0	-3e-05	-1e-05	-1e-05	0
207	1e-05	-2e-05	-3e-05	-8e-05	0	-3e-05	-1e-05	-1e-05	0
208	1e-05	-2e-05	-3e-05	-8e-05	0	-3e-05	-1e-05	-1e-05	0
209	1e-05	-2e-05	-3e-05	-8e-05	0	-3e-05	-1e-05	-1e-05	0
210	1e-05	-2e-05	-3e-05	-8e-05	0	-3e-05	-1e-05	-1e-05	0
211	1e-05	-2e-05	-3e-05	-8e-05	0	-3e-05	-1e-05	-1e-05	0
212	1e-05	-2e-05	-3e-05	-8e-05	0	-3e-05	-1e-05	-1e-05	0
213	3e-05	2e-05	-1e-05	-0.00019	7e-05	-1e-05	0	0	0
214	3e-05	2e-05	-1e-05	-0.00019	7e-05	-1e-05	0	0	0
215	3e-05	2e-05	-1e-05	-0.00019	7e-05	-1e-05	0	0	0
216	3e-05	2e-05	-1e-05	-0.00019	7e-05	-1e-05	0	0	0
217	3e-05	2e-05	-1e-05	-0.00019	7e-05	-1e-05	0	0	0
218	3e-05	2e-05	-1e-05	-0.00019	7e-05	-1e-05	0	0	0
219	3e-05	2e-05	-1e-05	-0.00019	7e-05	-1e-05	0	0	0
220	3e-05	2e-05	-1e-05	-0.00019	7e-05	-1e-05	0	0	0
221	3e-05	-2e-05	2e-05	7e-05	-0.00014	0	1e-05	-1e-05	0
222	-5e-05	-4e-05	-3e-05	5e-05	8e-05	-2e-05	-2e-05	-1e-05	0
223	-5e-05	-4e-05	-3e-05	5e-05	8e-05	-2e-05	-2e-05	-1e-05	0
224	-5e-05	-4e-05	-3e-05	5e-05	8e-05	-2e-05	-2e-05	-1e-05	0
225	-5e-05	-4e-05	-3e-05	5e-05	8e-05	-2e-05	-2e-05	-1e-05	0
226	-5e-05	-4e-05	-3e-05	5e-05	8e-05	-2e-05	-2e-05	-1e-05	0
227	-5e-05	-4e-05	-3e-05	5e-05	8e-05	-2e-05	-2e-05	-1e-05	0
228	-5e-05	-4e-05	-3e-05	5e-05	8e-05	-2e-05	-2e-05	-1e-05	0
229	-5e-05	-4e-05	-3e-05	5e-05	8e-05	-2e-05	-2e-05	-1e-05	0
230	-5e-05	-4e-05	-3e-05	5e-05	8e-05	-2e-05	-2e-05	-1e-05	0
231	-5e-05	-4e-05	-3e-05	5e-05	8e-05	-2e-05	-2e-05	-1e-05	0
232	-5e-05	-4e-05	-3e-05	5e-05	8e-05	-2e-05	-2e-05	-1e-05	0
233	-5e-05	-4e-05	-3e-05	5e-05	8e-05	-2e-05	-2e-05	-1e-05	0
234	-5e-05	-4e-05	-3e-05	5e-05	8e-05	-2e-05	-2e-05	-1e-05	0
235	-5e-05	-4e-05	-3e-05	5e-05	8e-05	-2e-05	-2e-05	-1e-05	0
236	-5e-05	-4e-05	-3e-05	5e-05	8e-05	-2e-05	-2e-05	-1e-05	0
239	4e-05	1e-05	2e-05	-1e-05	3e-05	2e-05	1e-05	0	0
240	4e-05	1e-05	2e-05	-1e-05	3e-05	2e-05	1e-05	0	0
241	4e-05	1e-05	2e-05	-1e-05	3e-05	2e-05	1e-05	0	0
242	-3e-05	-4e-05	-2e-05	1e-05	-0.00013	-2e-05	-3e-05	-1e-05	0
243	2e-05	0	-2e-05	-4e-05	8e-05	-5e-05	-1e-05	-1e-05	0
244	2e-05	0	-2e-05	-4e-05	8e-05	-5e-05	-1e-05	-1e-05	0
245	2e-05	0	-2e-05	-4e-05	8e-05	-5e-05	-1e-05	-1e-05	0
246	2e-05	0	-2e-05	-4e-05	8e-05	-5e-05	-1e-05	-1e-05	0
247	2e-05	0	-2e-05	-4e-05	8e-05	-5e-05	-1e-05	-1e-05	0
248	2e-05	0	-2e-05	-4e-05	8e-05	-5e-05	-1e-05	-1e-05	0
249	2e-05	0	-2e-05	-4e-05	8e-05	-5e-05	-1e-05	-1e-05	0
250	2e-05	0	-2e-05	-4e-05	8e-05	-5e-05	-1e-05	-1e-05	0
251	0	-1e-05	-1e-05	-4e-05	0.00011	0	-1e-05	-1e-05	0
252	1e-05	-4e-05	-3e-05	-2e-05	-0.00024	-2e-05	-3e-05	-1e-05	0
253	1e-05	-4e-05	-3e-05	-2e-05	-0.00024	-2e-05	-3e-05	-1e-05	0
254	1e-05	-4e-05	-3e-05	-2e-05	-0.00024	-2e-05	-3e-05	-1e-05	0
255	1e-05	-4e-05	-3e-05	-2e-05	-0.00024	-2e-05	-3e-05	-1e-05	0
256	1e-05	-4e-05	-3e-05	-2e-05	-0.00024	-2e-05	-3e-05	-1e-05	0
257	1e-05	-4e-05	-3e-05	-2e-05	-0.00024	-2e-05	-3e-05	-1e-05	0
258	1e-05	-4e-05	-3e-05	-2e-05	-0.00024	-2e-05	-3e-05	-1e-05	0
259	1e-05	-4e-05	-3e-05	-2e-05	-0.00024	-2e-05	-3e-05	-1e-05	0
260	1e-05	-4e-05	-3e-05	-2e-05	-0.00024	-2e-05	-3e-05	-1e-05	0
261	1e-05	-4e-05	-3e-05	-2e-05	-0.00024	-2e-05	-3e-05	-1e-05	0
262	1e-05	-4e-05	-3e-05	-2e-05	-0.00024	-2e-05	-3e-05	-1e-05	0
263	1e-05	-4e-05	-3e-05	-2e-05	-0.00024	-2e-05	-3e-05	-1e-05	0
264	1e-05	-4e-05	-3e-05	-2e-05	-0.00024	-2e-05	-3e-05	-1e-05	0
265	1e-05	-4e-05	-3e-05	-2e-05	-0.00024	-2e-05	-3e-05	-1e-05	0
266	5e-05	3e-05	0	-1e-05	-0.00019	-2e-05	-3e-05	0	0
267	5e-05	3e-05	0	-1e-05	-0.00019	-2e-05	-3e-05	0	0
268	6e-05	-2e-05	0	4e-05	9e-05	1e-05	-1e-05	-1e-05	0
269	6e-05	-2e-05	0	4e-05	9e-05	1e-05	-1e-05	-1e-05	0
270	6e-05	-2e-05	0	4e-05	9e-05	1e-05	-1e-05	-1e-05	0
271	6e-05	-2e-05	0	4e-05	9e-05	1e-05	-1e-05	-1e-05	0
272	6e-05	-2e-05	0	4e-05	9e-05	1e-05	-1e-05	-1e-05	0
273	6e-05	-2e-05	0	4e-05	9e-05	1e-05	-1e-05	-1e-05	0
274	6e-05	-2e-05	0	4e-05	9e-05	1e-05	-1e-05	-1e-05	0
275	6e-05	-2e-05	0	4e-05	9e-05	1e-05	-1e-05	-1e-05	0
276	6e-05	-2e-05	0	4e-05	9e-05	1e-05	-1e-05	-1e-05	0
277	6e-05	-2e-05	0	4e-05	9e-05	1e-05	-1e-05	-1e-05	0
278	6e-05	-2e-05	0	4e-05	9e-05	1e-05	-1e-05	-1e-05	0
279	6e-05	-2e-05	0	4e-05	9e-05	1e-05	-1e-05	-1e-05	0
280	6e-05	-2e-05	0	4e-05	9e-05	1e-05	-1e-05	-1e-05	0
281	6e-05	-2e-05	0	4e-05	9e-05	1e-05	-1e-05	-1e-05	0
282	6e-05	-2e-05	0	4e-05	9e-05	1e-05	-1e-05	-1e-05	0
283	6e-05	-2e-05	0	4e-05	9e-05	1e-05	-1e-05	-1e-05	0
284	6e-05	-2e-05	0	4e-05	9e-05	1e-05	-1e-05	-1e-05	0
285	6e-05	-2e-05	0	4e-05	9e-05	1e-05	-1e-05	-1e-05	0
286	6e-05	-2e-05	0	4e-05	9e-05	1e-05	-1e-05	-1e-05	0
289	0	0	0	3e-05	-4e-05	-1e-05	-2e-05	1e-05	0
290	0	0	0	3e-05	-4e-05	-1e-05	-2e-05	1e-05	0
291	0	0	0	3e-05	-4e-05	-1e-05	-2e-05	1e-05	0
292	0	0	0	3e-05	-4e-05	-1e-05	-2e-05	1e-05	0
293	0	0	0	3e-05	-4e-05	-1e-05	-2e-05	1e-05	0
294	0	0	0	3e-05	-4e-05	-1e-05	-2e-05	1e-05	0
295	0	0	-1e-05	-5e-05	5e-05	0	0	-2e-05	0
296	0	0	-1e-05	-5e-05	5e-05	0	0	-2e-05	0
297	0	0	-1e-05	-5e-05	5e-05	0	0	-2e-05	0
298	0	0	-1e-05	-5e-05	5e-05	0	0	-2e-05	0
299	0	0	-1e-05	-5e-05	5e-05	0	0	-2e-05	0
300	0	0	-1e-05	-5e-05	5e-05	0	0	-2e-05	0
301	0	0	-1e-05	-5e-05	5e-05	0	0	-2e-05	0
302	-3e-05	-4e-05	-7e-05	-0.00018	-0.00034	-2e-05	-1e-05	-2e-05	0
303	4e-05	-1e-05	1e-05	0.00016	0.00012	-2e-05	-2e-05	-4e-05	0
304	4e-05	-1e-05	1e-05	0.00016	0.00012	-2e-05	-2e-05	-4e-05	0
305	4e-05	-1e-05	1e-05	0.00016	0.00012	-2e-05	-2e-05	-4e-05	0
306	4e-05	-1e-05	1e-05	0.00016	0.00012	-2e-05	-2e-05	-4e-05	0
307	4e-05	-1e-05	1e-05	0.00016	0.00012	-2e-05	-2e-05	-4e-05	0
308	4e-05	-1e-05	1e-05	0.00016	0.00012	-2e-05	-2e-05	-4e-05	0
309	4e-05	-1e-05	1e-05	0.00016	0.00012	-2e-05	-2e-05	-4e-05	0
310	4e-05	-1e-05	1e-05	0.00016	0.00012	-2e-05	-2e-05	-4e-05	0
311	4e-05	-1e-05	1e-05	0.00016	0.00012	-2e-05	-2e-05	-4e-05	0
312	4e-05	-1e-05	1e-05	0.00016	0.00012	-2e-05	-2e-05	-4e-05	0
313	4e-05	-1e-05	1e-05	0.00016	0.00012	-2e-05	-2e-05	-4e-05	0
314	4e-05	-1e-05	1e-05	0.00016	0.00012	-2e-05	-2e-05	-4e-05	0
315	4e-05	-1e-05	1e-05	0.00016	0.00012	-2e-05	-2e-05	-4e-05	0
316	4e-05	-1e-05	1e-05	0.00016	0.00012	-2e-05	-2e-05	-4e-05	0
317	4e-05	-1e-05	1e-05	0.00016	0.00012	-2e-05	-2e-05	-4e-05	0
318	4e-05	-1e-05	1e-05	0.00016	0.00012	-2e-05	-2e-05	-4e-05	0
319	-7e-05	-2e-05	0	8e-05	-0.00012	2e-05	1e-05	-3e-05	0
320	-7e-05	-2e-05	0	8e-05	-0.00012	2e-05	1e-05	-3e-05	0
321	-7e-05	-2e-05	0	8e-05	-0.00012	2e-05	1e-05	-3e-05	0
322	-7e-05	-2e-05	0	8e-05	-0.00012	2e-05	1e-05	-3e-05	0
323	-7e-05	-2e-05	0	8e-05	-0.00012	2e-05	1e-05	-3e-05	0
324	-7e-05	-2e-05	0	8e-05	-0.00012	2e-05	1e-05	-3e-05	0
325	-7e-05	-2e-05	0	8e-05	-0.00012	2e-05	1e-05	-3e-05	0
326	3e-05	-3e-05	1e-05	-0.00011	-3e-05	0	0	-2e-05	0
327	0.00014	-3e-05	-4e-05	-6e-05	-0.00016	-2e-05	-2e-05	0	0
328	-1e-05	-2e-05	-4e-05	-4e-05	-6e-05	-4e-05	-3e-05	0	0
329	-1e-05	-2e-05	-4e-05	-4e-05	-6e-05	-4e-05	-3e-05	0	0
330	-1e-05	-2e-05	-4e-05	-4e-05	-6e-05	-4e-05	-3e-05	0	0
331	-1e-05	-2e-05	-4e-05	-4e-05	-6e-05	-4e-05	-3e-05	0	0
332	-1e-05	-2e-05	-4e-05	-4e-05	-6e-05	-4e-05	-3e-05	0	0
333	-1e-05	-2e-05	-4e-05	-4e-05	-6e-05	-4e-05	-3e-05	0	0
334	-1e-05	-2e-05	-4e-05	-4e-05	-6e-05	-4e-05	-3e-05	0	0
335	-1e-05	-2e-05	-4e-05	-4e-05	-6e-05	-4e-05	-3e-05	0	0
337	-1e-05	-2e-05	-4e-05	-4e-05	-6e-05	-4e-05	-3e-05	0	0
339	-1e-05	-2e-05	-4e-05	-4e-05	-6e-05	-4e-05	-3e-05	0	0
340	-1e-05	-2e-05	-4e-05	-4e-05	-6e-05	-4e-05	-3e-05	0	0
341	-1e-05	-2e-05	-4e-05	-4e-05	-6e-05	-4e-05	-3e-05	0	0
342	-1e-05	-2e-05	-4e-05	-4e-05	-6e-05	-4e-05	-3e-05	0	0
343	-1e-05	-2e-05	-4e-05	-4e-05	-6e-05	-4e-05	-3e-05	0	0
344	-1e-05	-2e-05	-4e-05	-4e-05	-6e-05	-4e-05	-3e-05	0	0
345	-1e-05	-2e-05	-4e-05	-4e-05	-6e-05	-4e-05	-3e-05	0	0
346	-1e-05	-2e-05	-4e-05	-4e-05	-6e-05	-4e-05	-3e-05	0	0
347	-1e-05	-2e-05	-4e-05	-4e-05	-6e-05	-4e-05	-3e-05	0	0
348	-1e-05	-2e-05	-4e-05	-4e-05	-6e-05	-4e-05	-3e-05	0	0
349	0	0	1e-05	-5e-05	-0.00013	-1e-05	-1e-05	-1e-05	0
350	0	0	1e-05	-5e-05	-0.00013	-1e-05	-1e-05	-1e-05	0
351	2e-05	4e-05	-1e-05	-7e-05	-4e-05	-3e-05	-1e-05	-2e-05	0
352	2e-05	4e-05	-1e-05	-7e-05	-4e-05	-3e-05	-1e-05	-2e-05	0
353	2e-05	4e-05	-1e-05	-7e-05	-4e-05	-3e-05	-1e-05	-2e-05	0
354	2e-05	4e-05	-1e-05	-7e-05	-4e-05	-3e-05	-1e-05	-2e-05	0
355	2e-05	4e-05	-1e-05	-7e-05	-4e-05	-3e-05	-1e-05	-2e-05	0
356	2e-05	4e-05	-1e-05	-7e-05	-4e-05	-3e-05	-1e-05	-2e-05	0
357	2e-05	4e-05	-1e-05	-7e-05	-4e-05	-3e-05	-1e-05	-2e-05	0
358	2e-05	4e-05	-1e-05	-7e-05	-4e-05	-3e-05	-1e-05	-2e-05	0
359	2e-05	4e-05	-1e-05	-7e-05	-4e-05	-3e-05	-1e-05	-2e-05	0
360	2e-05	4e-05	-1e-05	-7e-05	-4e-05	-3e-05	-1e-05	-2e-05	0
361	2e-05	4e-05	-1e-05	-7e-05	-4e-05	-3e-05	-1e-05	-2e-05	0
362	2e-05	4e-05	-1e-05	-7e-05	-4e-05	-3e-05	-1e-05	-2e-05	0
363	2e-05	4e-05	-1e-05	-7e-05	-4e-05	-3e-05	-1e-05	-2e-05	0
364	2e-05	4e-05	-1e-05	-7e-05	-4e-05	-3e-05	-1e-05	-2e-05	0
365	2e-05	4e-05	-1e-05	-7e-05	-4e-05	-3e-05	-1e-05	-2e-05	0
366	2e-05	4e-05	-1e-05	-7e-05	-4e-05	-3e-05	-1e-05	-2e-05	0
367	2e-05	4e-05	-1e-05	-7e-05	-4e-05	-3e-05	-1e-05	-2e-05	0
368	2e-05	4e-05	-1e-05	-7e-05	-4e-05	-3e-05	-1e-05	-2e-05	0
369	2e-05	4e-05	-1e-05	-7e-05	-4e-05	-3e-05	-1e-05	-2e-05	0
370	2e-05	4e-05	-1e-05	-7e-05	-4e-05	-3e-05	-1e-05	-2e-05	0
371	2e-05	4e-05	-1e-05	-7e-05	-4e-05	-3e-05	-1e-05	-2e-05	0
372	2e-05	4e-05	-1e-05	-7e-05	-4e-05	-3e-05	-1e-05	-2e-05	0
373	2e-05	4e-05	-1e-05	-7e-05	-4e-05	-3e-05	-1e-05	-2e-05	0
374	2e-05	4e-05	-1e-05	-7e-05	-4e-05	-3e-05	-1e-05	-2e-05	0
375	2e-05	4e-05	-1e-05	-7e-05	-4e-05	-3e-05	-1e-05	-2e-05	0
376	2e-05	4e-05	-1e-05	-7e-05	-4e-05	-3e-05	-1e-05	-2e-05	0
377	2e-05	4e-05	-1e-05	-7e-05	-4e-05	-3e-05	-1e-05	-2e-05	0
378	2e-05	4e-05	-1e-05	-7e-05	-4e-05	-3e-05	-1e-05	-2e-05	0
379	1e-05	-4e-05	-5e-05	-3e-05	0.00022	1e-05	-1e-05	0	0
380	-9e-05	-1e-05	-1e-05	-0.0001	-0.00014	0	-3e-05	0	0
381	-3e-05	-1e-05	2e-05	5e-05	0.0002	0	0	1e-05	0
382	-3e-05	-1e-05	2e-05	5e-05	0.0002	0	0	1e-05	0
383	-3e-05	-1e-05	2e-05	5e-05	0.0002	0	0	1e-05	0
384	-3e-05	-1e-05	2e-05	5e-05	0.0002	0	0	1e-05	0
385	-3e-05	-1e-05	2e-05	5e-05	0.0002	0	0	1e-05	0
386	1e-05	-3e-05	1e-05	-1e-05	-8e-05	-1e-05	-1e-05	0	0
388	1e-05	-3e-05	1e-05	-1e-05	-8e-05	-1e-05	-1e-05	0	0
389	1e-05	-3e-05	1e-05	-1e-05	-8e-05	-1e-05	-1e-05	0	0
390	1e-05	-3e-05	1e-05	-1e-05	-8e-05	-1e-05	-1e-05	0	0
391	1e-05	-3e-05	1e-05	-1e-05	-8e-05	-1e-05	-1e-05	0	0
392	1e-05	-3e-05	1e-05	-1e-05	-8e-05	-1e-05	-1e-05	0	0
393	1e-05	-3e-05	1e-05	-1e-05	-8e-05	-1e-05	-1e-05	0	0
394	1e-05	-3e-05	1e-05	-1e-05	-8e-05	-1e-05	-1e-05	0	0
395	1e-05	-3e-05	1e-05	-1e-05	-8e-05	-1e-05	-1e-05	0	0
396	1e-05	-3e-05	1e-05	-1e-05	-8e-05	-1e-05	-1e-05	0	0
397	1e-05	-3e-05	1e-05	-1e-05	-8e-05	-1e-05	-1e-05	0	0
398	1e-05	-3e-05	1e-05	-1e-05	-8e-05	-1e-05	-1e-05	0	0
399	1e-05	-3e-05	1e-05	-1e-05	-8e-05	-1e-05	-1e-05	0	0
400	1e-05	-3e-05	1e-05	-1e-05	-8e-05	-1e-05	-1e-05	0	0
401	1e-05	-3e-05	1e-05	-1e-05	-8e-05	-1e-05	-1e-05	0	0
402	1e-05	-3e-05	1e-05	-1e-05	-8e-05	-1e-05	-1e-05	0	0
403	1e-05	-3e-05	1e-05	-1e-05	-8e-05	-1e-05	-1e-05	0	0
404	1e-05	-3e-05	1e-05	-1e-05	-8e-05	-1e-05	-1e-05	0	0
405	1e-05	-3e-05	1e-05	-1e-05	-8e-05	-1e-05	-1e-05	0	0
406	1e-05	-3e-05	1e-05	-1e-05	-8e-05	-1e-05	-1e-05	0	0
407	1e-05	-3e-05	1e-05	-1e-05	-8e-05	-1e-05	-1e-05	0	0
408	1e-05	-3e-05	1e-05	-1e-05	-8e-05	-1e-05	-1e-05	0	0
409	-3e-05	-4e-05	-3e-05	-4e-05	-3e-05	-4e-05	-2e-05	-2e-05	0
410	-8e-05	-5e-05	-2e-05	-1e-05	0.00014	2e-05	1e-05	-2e-05	0
411	-8e-05	-5e-05	-2e-05	-1e-05	0.00014	2e-05	1e-05	-2e-05	0
412	1e-05	-2e-05	5e-05	2e-05	0	-1e-05	1e-05	-1e-05	0
413	1e-05	-2e-05	5e-05	2e-05	0	-1e-05	1e-05	-1e-05	0
415	1e-05	-2e-05	5e-05	2e-05	0	-1e-05	1e-05	-1e-05	0
416	1e-05	-2e-05	5e-05	2e-05	0	-1e-05	1e-05	-1e-05	0
417	1e-05	-2e-05	5e-05	2e-05	0	-1e-05	1e-05	-1e-05	0
418	1e-05	-2e-05	5e-05	2e-05	0	-1e-05	1e-05	-1e-05	0
419	1e-05	-2e-05	5e-05	2e-05	0	-1e-05	1e-05	-1e-05	0
420	1e-05	-2e-05	5e-05	2e-05	0	-1e-05	1e-05	-1e-05	0
421	1e-05	-2e-05	5e-05	2e-05	0	-1e-05	1e-05	-1e-05	0
422	1e-05	-2e-05	5e-05	2e-05	0	-1e-05	1e-05	-1e-05	0
423	1e-05	-2e-05	5e-05	2e-05	0	-1e-05	1e-05	-1e-05	0
424	1e-05	-2e-05	5e-05	2e-05	0	-1e-05	1e-05	-1e-05	0
425	1e-05	-2e-05	5e-05	2e-05	0	-1e-05	1e-05	-1e-05	0
426	1e-05	-2e-05	5e-05	2e-05	0	-1e-05	1e-05	-1e-05	0
427	1e-05	-2e-05	5e-05	2e-05	0	-1e-05	1e-05	-1e-05	0
428	1e-05	-2e-05	5e-05	2e-05	0	-1e-05	1e-05	-1e-05	0
429	1e-05	-2e-05	5e-05	2e-05	0	-1e-05	1e-05	-1e-05	0
430	1e-05	-2e-05	5e-05	2e-05	0	-1e-05	1e-05	-1e-05	0
431	1e-05	3e-05	-1e-05	-6e-05	9e-05	-1e-05	-1e-05	-1e-05	0
432	-5e-05	-2e-05	-1e-05	-2e-05	-0.00012	0	-1e-05	-1e-05	0
433	-5e-05	-2e-05	-1e-05	-2e-05	-0.00012	0	-1e-05	-1e-05	0
434	-5e-05	-2e-05	-1e-05	-2e-05	-0.00012	0	-1e-05	-1e-05	0
435	-5e-05	-2e-05	-1e-05	-2e-05	-0.00012	0	-1e-05	-1e-05	0
436	-5e-05	-2e-05	-1e-05	-2e-05	-0.00012	0	-1e-05	-1e-05	0
439	-5e-05	-2e-05	-1e-05	-2e-05	-0.00012	0	-1e-05	-1e-05	0
440	-5e-05	-2e-05	-1e-05	-2e-05	-0.00012	0	-1e-05	-1e-05	0
441	-5e-05	-2e-05	-1e-05	-2e-05	-0.00012	0	-1e-05	-1e-05	0
442	-5e-05	-2e-05	-1e-05	-2e-05	-0.00012	0	-1e-05	-1e-05	0
443	-5e-05	-2e-05	-1e-05	-2e-05	-0.00012	0	-1e-05	-1e-05	0
444	-5e-05	-2e-05	-1e-05	-2e-05	-0.00012	0	-1e-05	-1e-05	0
445	-5e-05	-2e-05	-1e-05	-2e-05	-0.00012	0	-1e-05	-1e-05	0
446	2e-05	1e-05	0	-3e-05	2e-05	-3e-05	-2e-05	-1e-05	0
447	2e-05	0	-3e-05	0	4e-05	-2e-05	-2e-05	0	0
448	2e-05	0	-3e-05	0	4e-05	-2e-05	-2e-05	0	0
449	2e-05	0	-3e-05	0	4e-05	-2e-05	-2e-05	0	0
450	2e-05	0	-3e-05	0	4e-05	-2e-05	-2e-05	0	0
451	2e-05	0	-3e-05	0	4e-05	-2e-05	-2e-05	0	0
452	2e-05	0	-3e-05	0	4e-05	-2e-05	-2e-05	0	0
453	2e-05	0	-3e-05	0	4e-05	-2e-05	-2e-05	0	0
454	2e-05	0	-3e-05	0	4e-05	-2e-05	-2e-05	0	0
455	2e-05	0	-3e-05	0	4e-05	-2e-05	-2e-05	0	0
456	2e-05	0	-3e-05	0	4e-05	-2e-05	-2e-05	0	0
457	2e-05	0	-3e-05	0	4e-05	-2e-05	-2e-05	0	0
458	2e-05	0	-3e-05	0	4e-05	-2e-05	-2e-05	0	0
459	2e-05	0	-3e-05	0	4e-05	-2e-05	-2e-05	0	0
460	2e-05	0	-3e-05	0	4e-05	-2e-05	-2e-05	0	0
461	2e-05	0	-3e-05	0	4e-05	-2e-05	-2e-05	0	0
463	2e-05	0	-3e-05	0	4e-05	-2e-05	-2e-05	0	0
464	2e-05	0	-3e-05	0	4e-05	-2e-05	-2e-05	0	0
465	2e-05	0	-3e-05	0	4e-05	-2e-05	-2e-05	0	0
466	2e-05	0	-3e-05	0	4e-05	-2e-05	-2e-05	0	0
467	2e-05	0	-3e-05	0	4e-05	-2e-05	-2e-05	0	0
468	-1e-05	-3e-05	-4e-05	0	0	0	0	-1e-05	0
469	-2e-05	-2e-05	-4e-05	2e-05	0.00016	-1e-05	-1e-05	-2e-05	0
470	-2e-05	-2e-05	-4e-05	2e-05	0.00016	-1e-05	-1e-05	-2e-05	0
471	-2e-05	-2e-05	-4e-05	2e-05	0.00016	-1e-05	-1e-05	-2e-05	0
472	-2e-05	-2e-05	-4e-05	2e-05	0.00016	-1e-05	-1e-05	-2e-05	0
473	-2e-05	-2e-05	-4e-05	2e-05	0.00016	-1e-05	-1e-05	-2e-05	0
474	-2e-05	-2e-05	-4e-05	2e-05	0.00016	-1e-05	-1e-05	-2e-05	0
475	-2e-05	-2e-05	-4e-05	2e-05	0.00016	-1e-05	-1e-05	-2e-05	0
476	-2e-05	-2e-05	-4e-05	2e-05	0.00016	-1e-05	-1e-05	-2e-05	0
477	-2e-05	-2e-05	-4e-05	2e-05	0.00016	-1e-05	-1e-05	-2e-05	0
478	-2e-05	-2e-05	-4e-05	2e-05	0.00016	-1e-05	-1e-05	-2e-05	0
479	-2e-05	-2e-05	-4e-05	2e-05	0.00016	-1e-05	-1e-05	-2e-05	0
480	-2e-05	-2e-05	-4e-05	2e-05	0.00016	-1e-05	-1e-05	-2e-05	0
481	-2e-05	-2e-05	-4e-05	2e-05	0.00016	-1e-05	-1e-05	-2e-05	0
482	-2e-05	-2e-05	-4e-05	2e-05	0.00016	-1e-05	-1e-05	-2e-05	0
483	-2e-05	-2e-05	-4e-05	2e-05	0.00016	-1e-05	-1e-05	-2e-05	0
484	-2e-05	-2e-05	-4e-05	2e-05	0.00016	-1e-05	-1e-05	-2e-05	0
485	-2e-05	-2e-05	-4e-05	2e-05	0.00016	-1e-05	-1e-05	-2e-05	0
486	-2e-05	-2e-05	-4e-05	2e-05	0.00016	-1e-05	-1e-05	-2e-05	0
488	-2e-05	-2e-05	-4e-05	2e-05	0.00016	-1e-05	-1e-05	-2e-05	0
489	-2e-05	-2e-05	-4e-05	2e-05	0.00016	-1e-05	-1e-05	-2e-05	0
490	-2e-05	-2e-05	-4e-05	2e-05	0.00016	-1e-05	-1e-05	-2e-05	0
491	-2e-05	-2e-05	-4e-05	2e-05	0.00016	-1e-05	-1e-05	-2e-05	0
492	-2e-05	-2e-05	-4e-05	2e-05	0.00016	-1e-05	-1e-05	-2e-05	0
493	-2e-05	-2e-05	-4e-05	2e-05	0.00016	-1e-05	-1e-05	-2e-05	0
494	-2e-05	-2e-05	-4e-05	2e-05	0.00016	-1e-05	-1e-05	-2e-05	0
495	-2e-05	-2e-05	-4e-05	2e-05	0.00016	-1e-05	-1e-05	-2e-05	0
496	-2e-05	-2e-05	-4e-05	2e-05	0.00016	-1e-05	-1e-05	-2e-05	0
497	-2e-05	-2e-05	-4e-05	2e-05	0.00016	-1e-05	-1e-05	-2e-05	0
498	-2e-05	-2e-05	-4e-05	2e-05	0.00016	-1e-05	-1e-05	-2e-05	0
499	3e-05	0	2e-05	9e-05	4e-05	1e-05	-1e-05	0	0
500	-1e-05	-2e-05	1e-05	2e-05	0.00068	1e-05	-1e-05	-2e-05	0
501	-1e-05	-2e-05	1e-05	2e-05	0.00068	1e-05	-1e-05	-2e-05	0
502	-1e-05	-2e-05	1e-05	2e-05	0.00068	1e-05	-1e-05	-2e-05	0
503	-1e-05	-2e-05	1e-05	2e-05	0.00068	1e-05	-1e-05	-2e-05	0
504	-1e-05	-2e-05	1e-05	2e-05	0.00068	1e-05	-1e-05	-2e-05	0
505	-1e-05	-2e-05	1e-05	2e-05	0.00068	1e-05	-1e-05	-2e-05	0
506	-1e-05	-2e-05	1e-05	2e-05	0.00068	1e-05	-1e-05	-2e-05	0
507	-1e-05	-2e-05	1e-05	2e-05	0.00068	1e-05	-1e-05	-2e-05	0
508	-1e-05	-2e-05	1e-05	2e-05	0.00068	1e-05	-1e-05	-2e-05	0
509	-1e-05	-2e-05	1e-05	2e-05	0.00068	1e-05	-1e-05	-2e-05	0
510	-1e-05	-2e-05	1e-05	2e-05	0.00068	1e-05	-1e-05	-2e-05	0
511	-1e-05	-2e-05	1e-05	2e-05	0.00068	1e-05	-1e-05	-2e-05	0
512	-1e-05	-2e-05	1e-05	2e-05	0.00068	1e-05	-1e-05	-2e-05	0
513	-0.00014	-4e-05	-2e-05	1e-05	-0.00018	1e-05	-2e-05	-5e-05	0
514	-0.00014	-4e-05	-2e-05	1e-05	-0.00018	1e-05	-2e-05	-5e-05	0
515	-0.00014	-4e-05	-2e-05	1e-05	-0.00018	1e-05	-2e-05	-5e-05	0
516	-0.00014	-4e-05	-2e-05	1e-05	-0.00018	1e-05	-2e-05	-5e-05	0
517	-0.00014	-4e-05	-2e-05	1e-05	-0.00018	1e-05	-2e-05	-5e-05	0
518	-0.00014	-4e-05	-2e-05	1e-05	-0.00018	1e-05	-2e-05	-5e-05	0
519	-0.00014	-4e-05	-2e-05	1e-05	-0.00018	1e-05	-2e-05	-5e-05	0
520	-0.00014	-4e-05	-2e-05	1e-05	-0.00018	1e-05	-2e-05	-5e-05	0
521	-2e-05	-2e-05	-2e-05	-5e-05	-0.00022	0	-1e-05	0	0
522	-2e-05	-2e-05	-2e-05	-5e-05	-0.00022	0	-1e-05	0	0
523	-2e-05	-2e-05	-2e-05	-5e-05	-0.00022	0	-1e-05	0	0
524	-2e-05	-2e-05	-2e-05	-5e-05	-0.00022	0	-1e-05	0	0
525	-2e-05	-2e-05	-2e-05	-5e-05	-0.00022	0	-1e-05	0	0
526	-2e-05	-2e-05	-2e-05	-5e-05	-0.00022	0	-1e-05	0	0
527	-2e-05	-2e-05	-2e-05	-5e-05	-0.00022	0	-1e-05	0	0
528	6e-05	-1e-05	-4e-05	3e-05	2e-05	0	0	2e-05	0
529	8e-05	0	-4e-05	-9e-05	-0.00029	-2e-05	0	-1e-05	0
530	8e-05	0	-4e-05	-9e-05	-0.00029	-2e-05	0	-1e-05	0
531	8e-05	0	-4e-05	-9e-05	-0.00029	-2e-05	0	-1e-05	0
532	8e-05	0	-4e-05	-9e-05	-0.00029	-2e-05	0	-1e-05	0
533	8e-05	0	-4e-05	-9e-05	-0.00029	-2e-05	0	-1e-05	0
534	8e-05	0	-4e-05	-9e-05	-0.00029	-2e-05	0	-1e-05	0
535	8e-05	0	-4e-05	-9e-05	-0.00029	-2e-05	0	-1e-05	0
536	8e-05	0	-4e-05	-9e-05	-0.00029	-2e-05	0	-1e-05	0
540	8e-05	0	-4e-05	-9e-05	-0.00029	-2e-05	0	-1e-05	0
541	8e-05	0	-4e-05	-9e-05	-0.00029	-2e-05	0	-1e-05	0
542	8e-05	0	-4e-05	-9e-05	-0.00029	-2e-05	0	-1e-05	0
543	8e-05	0	-4e-05	-9e-05	-0.00029	-2e-05	0	-1e-05	0
544	8e-05	0	-4e-05	-9e-05	-0.00029	-2e-05	0	-1e-05	0
545	8e-05	0	-4e-05	-9e-05	-0.00029	-2e-05	0	-1e-05	0
546	8e-05	0	-4e-05	-9e-05	-0.00029	-2e-05	0	-1e-05	0
547	8e-05	0	-4e-05	-9e-05	-0.00029	-2e-05	0	-1e-05	0
548	8e-05	0	-4e-05	-9e-05	-0.00029	-2e-05	0	-1e-05	0
549	8e-05	0	-4e-05	-9e-05	-0.00029	-2e-05	0	-1e-05	0
550	8e-05	0	-4e-05	-9e-05	-0.00029	-2e-05	0	-1e-05	0
551	0	4e-05	0.00015	0.00044	0.00032	2e-05	0	-1e-05	0
552	-4e-05	-3e-05	-4e-05	-7e-05	-0.00017	1e-05	0	-1e-05	0
553	-4e-05	-3e-05	-4e-05	-7e-05	-0.00017	1e-05	0	-1e-05	0
554	-4e-05	-3e-05	-4e-05	-7e-05	-0.00017	1e-05	0	-1e-05	0
555	-4e-05	-3e-05	-4e-05	-7e-05	-0.00017	1e-05	0	-1e-05	0
556	-4e-05	-3e-05	-4e-05	-7e-05	-0.00017	1e-05	0	-1e-05	0
557	-4e-05	-3e-05	-4e-05	-7e-05	-0.00017	1e-05	0	-1e-05	0
558	-4e-05	-3e-05	-4e-05	-7e-05	-0.00017	1e-05	0	-1e-05	0
559	-4e-05	-3e-05	-4e-05	-7e-05	-0.00017	1e-05	0	-1e-05	0
560	-4e-05	-3e-05	-4e-05	-7e-05	-0.00017	1e-05	0	-1e-05	0
561	-4e-05	-3e-05	-4e-05	-7e-05	-0.00017	1e-05	0	-1e-05	0
562	-4e-05	-3e-05	-4e-05	-7e-05	-0.00017	1e-05	0	-1e-05	0
563	-4e-05	-3e-05	-4e-05	-7e-05	-0.00017	1e-05	0	-1e-05	0
564	-4e-05	-3e-05	-4e-05	-7e-05	-0.00017	1e-05	0	-1e-05	0
565	-4e-05	-3e-05	-4e-05	-7e-05	-0.00017	1e-05	0	-1e-05	0
566	-4e-05	-3e-05	-4e-05	-7e-05	-0.00017	1e-05	0	-1e-05	0
567	-4e-05	-3e-05	-4e-05	-7e-05	-0.00017	1e-05	0	-1e-05	0
568	-4e-05	-3e-05	-4e-05	-7e-05	-0.00017	1e-05	0	-1e-05	0
569	-4e-05	-3e-05	-4e-05	-7e-05	-0.00017	1e-05	0	-1e-05	0
570	-4e-05	-3e-05	-4e-05	-7e-05	-0.00017	1e-05	0	-1e-05	0
571	-4e-05	-3e-05	-4e-05	-7e-05	-0.00017	1e-05	0	-1e-05	0
572	-4e-05	-3e-05	-4e-05	-7e-05	-0.00017	1e-05	0	-1e-05	0
573	-4e-05	-3e-05	-4e-05	-7e-05	-0.00017	1e-05	0	-1e-05	0
574	-1e-05	2e-05	-3e-05	-8e-05	-3e-05	-3e-05	-3e-05	-3e-05	0
575	-4e-05	0	2e-05	0.0001	0.0001	-1e-05	-1e-05	-1e-05	0
576	-4e-05	0	2e-05	0.0001	0.0001	-1e-05	-1e-05	-1e-05	0
577	-4e-05	0	2e-05	0.0001	0.0001	-1e-05	-1e-05	-1e-05	0
578	-4e-05	0	2e-05	0.0001	0.0001	-1e-05	-1e-05	-1e-05	0
579	-4e-05	0	2e-05	0.0001	0.0001	-1e-05	-1e-05	-1e-05	0
580	-4e-05	0	2e-05	0.0001	0.0001	-1e-05	-1e-05	-1e-05	0
581	-4e-05	0	2e-05	0.0001	0.0001	-1e-05	-1e-05	-1e-05	0
582	-4e-05	0	2e-05	0.0001	0.0001	-1e-05	-1e-05	-1e-05	0
583	-4e-05	0	2e-05	0.0001	0.0001	-1e-05	-1e-05	-1e-05	0
584	-4e-05	0	2e-05	0.0001	0.0001	-1e-05	-1e-05	-1e-05	0
585	-4e-05	0	2e-05	0.0001	0.0001	-1e-05	-1e-05	-1e-05	0
586	-4e-05	0	2e-05	0.0001	0.0001	-1e-05	-1e-05	-1e-05	0
588	-4e-05	0	2e-05	0.0001	0.0001	-1e-05	-1e-05	-1e-05	0
589	-4e-05	0	2e-05	0.0001	0.0001	-1e-05	-1e-05	-1e-05	0
590	-4e-05	0	2e-05	0.0001	0.0001	-1e-05	-1e-05	-1e-05	0
591	-4e-05	0	2e-05	0.0001	0.0001	-1e-05	-1e-05	-1e-05	0
592	-4e-05	0	2e-05	0.0001	0.0001	-1e-05	-1e-05	-1e-05	0
593	-4e-05	0	2e-05	0.0001	0.0001	-1e-05	-1e-05	-1e-05	0
594	-4e-05	0	2e-05	0.0001	0.0001	-1e-05	-1e-05	-1e-05	0
595	-4e-05	0	2e-05	0.0001	0.0001	-1e-05	-1e-05	-1e-05	0
596	-3e-05	2e-05	0	-6e-05	-1e-05	0	0	1e-05	0
597	-1e-05	-5e-05	-4e-05	-4e-05	0.00015	0	-1e-05	-1e-05	0
598	-4e-05	0	2e-05	0	-0.00036	0	-2e-05	0	0
599	-4e-05	0	2e-05	0	-0.00036	0	-2e-05	0	0
600	-4e-05	0	2e-05	0	-0.00036	0	-2e-05	0	0
601	-4e-05	0	2e-05	0	-0.00036	0	-2e-05	0	0
602	-4e-05	0	2e-05	0	-0.00036	0	-2e-05	0	0
603	-4e-05	0	2e-05	0	-0.00036	0	-2e-05	0	0
604	-4e-05	0	2e-05	0	-0.00036	0	-2e-05	0	0
605	-4e-05	0	2e-05	0	-0.00036	0	-2e-05	0	0
606	-4e-05	0	2e-05	0	-0.00036	0	-2e-05	0	0
607	-4e-05	0	2e-05	0	-0.00036	0	-2e-05	0	0
608	-4e-05	0	2e-05	0	-0.00036	0	-2e-05	0	0
609	-4e-05	0	2e-05	0	-0.00036	0	-2e-05	0	0
610	-4e-05	0	2e-05	0	-0.00036	0	-2e-05	0	0
611	4e-05	-1e-05	0	-0.00011	0.00015	0	1e-05	0	0
612	4e-05	-1e-05	0	-0.00011	0.00015	0	1e-05	0	0
613	4e-05	-1e-05	0	-0.00011	0.00015	0	1e-05	0	0
614	4e-05	-1e-05	0	-0.00011	0.00015	0	1e-05	0	0
615	4e-05	-1e-05	0	-0.00011	0.00015	0	1e-05	0	0
616	4e-05	-1e-05	0	-0.00011	0.00015	0	1e-05	0	0
617	4e-05	-1e-05	0	-0.00011	0.00015	0	1e-05	0	0
618	4e-05	-1e-05	0	-0.00011	0.00015	0	1e-05	0	0
619	4e-05	-1e-05	0	-0.00011	0.00015	0	1e-05	0	0
620	4e-05	-1e-05	0	-0.00011	0.00015	0	1e-05	0	0
621	4e-05	-1e-05	0	-0.00011	0.00015	0	1e-05	0	0
622	4e-05	-1e-05	0	-0.00011	0.00015	0	1e-05	0	0
623	4e-05	-1e-05	0	-0.00011	0.00015	0	1e-05	0	0
624	4e-05	-1e-05	0	-0.00011	0.00015	0	1e-05	0	0
625	4e-05	-1e-05	0	-0.00011	0.00015	0	1e-05	0	0
626	4e-05	-1e-05	0	-0.00011	0.00015	0	1e-05	0	0
627	0	-3e-05	-4e-05	-0.0001	-6e-05	-1e-05	1e-05	0	0
628	-1e-05	-3e-05	0	0	5e-05	-2e-05	-1e-05	-3e-05	0
629	-1e-05	-3e-05	0	0	5e-05	-2e-05	-1e-05	-3e-05	0
630	-1e-05	-3e-05	0	0	5e-05	-2e-05	-1e-05	-3e-05	0
631	-1e-05	-3e-05	0	0	5e-05	-2e-05	-1e-05	-3e-05	0
632	-1e-05	-3e-05	0	0	5e-05	-2e-05	-1e-05	-3e-05	0
633	-1e-05	-3e-05	0	0	5e-05	-2e-05	-1e-05	-3e-05	0
634	-1e-05	-3e-05	0	0	5e-05	-2e-05	-1e-05	-3e-05	0
635	-1e-05	-3e-05	0	0	5e-05	-2e-05	-1e-05	-3e-05	0
636	-1e-05	-3e-05	0	0	5e-05	-2e-05	-1e-05	-3e-05	0
639	-1e-05	-3e-05	0	0	5e-05	-2e-05	-1e-05	-3e-05	0
640	-1e-05	-3e-05	0	0	5e-05	-2e-05	-1e-05	-3e-05	0
641	-1e-05	-3e-05	0	0	5e-05	-2e-05	-1e-05	-3e-05	0
642	-1e-05	-3e-05	0	0	5e-05	-2e-05	-1e-05	-3e-05	0
643	-1e-05	-3e-05	0	0	5e-05	-2e-05	-1e-05	-3e-05	0
644	-1e-05	-3e-05	0	0	5e-05	-2e-05	-1e-05	-3e-05	0
645	-1e-05	-3e-05	0	0	5e-05	-2e-05	-1e-05	-3e-05	0
646	-1e-05	-3e-05	0	0	5e-05	-2e-05	-1e-05	-3e-05	0
647	-1e-05	-3e-05	0	0	5e-05	-2e-05	-1e-05	-3e-05	0
648	0	2e-05	1e-05	-1e-05	-5e-05	-5e-05	-2e-05	-2e-05	0
649	3e-05	-2e-05	-5e-05	1e-05	0.00011	0	1e-05	0	0
650	1e-05	1e-05	-1e-05	4e-05	-0.00013	0	-2e-05	-3e-05	0
651	1e-05	1e-05	-1e-05	4e-05	-0.00013	0	-2e-05	-3e-05	0
652	1e-05	1e-05	-1e-05	4e-05	-0.00013	0	-2e-05	-3e-05	0
653	1e-05	1e-05	-1e-05	4e-05	-0.00013	0	-2e-05	-3e-05	0
654	1e-05	1e-05	-1e-05	4e-05	-0.00013	0	-2e-05	-3e-05	0
655	1e-05	1e-05	-1e-05	4e-05	-0.00013	0	-2e-05	-3e-05	0
657	1e-05	1e-05	-1e-05	4e-05	-0.00013	0	-2e-05	-3e-05	0
658	1e-05	1e-05	-1e-05	4e-05	-0.00013	0	-2e-05	-3e-05	0
659	1e-05	1e-05	-1e-05	4e-05	-0.00013	0	-2e-05	-3e-05	0
660	1e-05	1e-05	-1e-05	4e-05	-0.00013	0	-2e-05	-3e-05	0
661	1e-05	1e-05	-1e-05	4e-05	-0.00013	0	-2e-05	-3e-05	0
662	1e-05	1e-05	-1e-05	4e-05	-0.00013	0	-2e-05	-3e-05	0
663	1e-05	1e-05	-1e-05	4e-05	-0.00013	0	-2e-05	-3e-05	0
664	1e-05	1e-05	-1e-05	4e-05	-0.00013	0	-2e-05	-3e-05	0
665	1e-05	1e-05	-1e-05	4e-05	-0.00013	0	-2e-05	-3e-05	0
666	1e-05	1e-05	-1e-05	4e-05	-0.00013	0	-2e-05	-3e-05	0
667	1e-05	1e-05	-1e-05	4e-05	-0.00013	0	-2e-05	-3e-05	0
668	1e-05	1e-05	-1e-05	4e-05	-0.00013	0	-2e-05	-3e-05	0
669	1e-05	1e-05	-1e-05	4e-05	-0.00013	0	-2e-05	-3e-05	0
670	1e-05	1e-05	-1e-05	4e-05	-0.00013	0	-2e-05	-3e-05	0
671	1e-05	1e-05	-1e-05	4e-05	-0.00013	0	-2e-05	-3e-05	0
672	1e-05	1e-05	-1e-05	4e-05	-0.00013	0	-2e-05	-3e-05	0
673	1e-05	1e-05	-1e-05	4e-05	-0.00013	0	-2e-05	-3e-05	0
674	1e-05	1e-05	-1e-05	4e-05	-0.00013	0	-2e-05	-3e-05	0
675	1e-05	1e-05	-1e-05	4e-05	-0.00013	0	-2e-05	-3e-05	0
676	1e-05	1e-05	-1e-05	4e-05	-0.00013	0	-2e-05	-3e-05	0
677	1e-05	1e-05	-1e-05	4e-05	-0.00013	0	-2e-05	-3e-05	0
678	1e-05	1e-05	-1e-05	4e-05	-0.00013	0	-2e-05	-3e-05	0
679	-0.0001	-2e-05	0	4e-05	2e-05	-1e-05	-1e-05	-2e-05	0
680	0	1e-05	-4e-05	-3e-05	-8e-05	0	-2e-05	0	0
681	0	1e-05	-4e-05	-3e-05	-8e-05	0	-2e-05	0	0
682	0	1e-05	-4e-05	-3e-05	-8e-05	0	-2e-05	0	0
683	0	1e-05	-4e-05	-3e-05	-8e-05	0	-2e-05	0	0
684	0	1e-05	-4e-05	-3e-05	-8e-05	0	-2e-05	0	0
685	0	1e-05	-4e-05	-3e-05	-8e-05	0	-2e-05	0	0
687	4e-05	7e-05	2e-05	0.00014	0.00023	5e-05	1e-05	2e-05	0
689	4e-05	7e-05	2e-05	0.00014	0.00023	5e-05	1e-05	2e-05	0
690	4e-05	7e-05	2e-05	0.00014	0.00023	5e-05	1e-05	2e-05	0
691	4e-05	7e-05	2e-05	0.00014	0.00023	5e-05	1e-05	2e-05	0
692	4e-05	7e-05	2e-05	0.00014	0.00023	5e-05	1e-05	2e-05	0
693	4e-05	7e-05	2e-05	0.00014	0.00023	5e-05	1e-05	2e-05	0
695	4e-05	7e-05	2e-05	0.00014	0.00023	5e-05	1e-05	2e-05	0
696	4e-05	7e-05	2e-05	0.00014	0.00023	5e-05	1e-05	2e-05	0
697	4e-05	7e-05	2e-05	0.00014	0.00023	5e-05	1e-05	2e-05	0
698	4e-05	7e-05	2e-05	0.00014	0.00023	5e-05	1e-05	2e-05	0
699	4e-05	7e-05	2e-05	0.00014	0.00023	5e-05	1e-05	2e-05	0
700	4e-05	7e-05	2e-05	0.00014	0.00023	5e-05	1e-05	2e-05	0
701	4e-05	7e-05	2e-05	0.00014	0.00023	5e-05	1e-05	2e-05	0
702	4e-05	7e-05	2e-05	0.00014	0.00023	5e-05	1e-05	2e-05	0
703	4e-05	7e-05	2e-05	0.00014	0.00023	5e-05	1e-05	2e-05	0
704	4e-05	7e-05	2e-05	0.00014	0.00023	5e-05	1e-05	2e-05	0
705	4e-05	7e-05	2e-05	0.00014	0.00023	5e-05	1e-05	2e-05	0
706	4e-05	7e-05	2e-05	0.00014	0.00023	5e-05	1e-05	2e-05	0
707	4e-05	7e-05	2e-05	0.00014	0.00023	5e-05	1e-05	2e-05	0
708	4e-05	7e-05	2e-05	0.00014	0.00023	5e-05	1e-05	2e-05	0
709	1e-05	-3e-05	-5e-05	4e-05	0.00016	-4e-05	-2e-05	-2e-05	0
710	-2e-05	-3e-05	-1e-05	-0.00013	-0.00016	-3e-05	0	-2e-05	0
711	-2e-05	-3e-05	-1e-05	-0.00013	-0.00016	-3e-05	0	-2e-05	0
712	-2e-05	-3e-05	-1e-05	-0.00013	-0.00016	-3e-05	0	-2e-05	0
713	-2e-05	-3e-05	-1e-05	-0.00013	-0.00016	-3e-05	0	-2e-05	0
714	-2e-05	-3e-05	-1e-05	-0.00013	-0.00016	-3e-05	0	-2e-05	0
715	-2e-05	-3e-05	-1e-05	-0.00013	-0.00016	-3e-05	0	-2e-05	0
716	-2e-05	-3e-05	-1e-05	-0.00013	-0.00016	-3e-05	0	-2e-05	0
717	-2e-05	-3e-05	-1e-05	-0.00013	-0.00016	-3e-05	0	-2e-05	0
718	-2e-05	-3e-05	-1e-05	-0.00013	-0.00016	-3e-05	0	-2e-05	0
719	-2e-05	-3e-05	-1e-05	-0.00013	-0.00016	-3e-05	0	-2e-05	0
720	-2e-05	-3e-05	-1e-05	-0.00013	-0.00016	-3e-05	0	-2e-05	0
721	-2e-05	-3e-05	-1e-05	-0.00013	-0.00016	-3e-05	0	-2e-05	0
722	-2e-05	-3e-05	-1e-05	-0.00013	-0.00016	-3e-05	0	-2e-05	0
723	-2e-05	-3e-05	-1e-05	-0.00013	-0.00016	-3e-05	0	-2e-05	0
724	-2e-05	-3e-05	-1e-05	-0.00013	-0.00016	-3e-05	0	-2e-05	0
725	-2e-05	-3e-05	-1e-05	-0.00013	-0.00016	-3e-05	0	-2e-05	0
726	-2e-05	-3e-05	-1e-05	-0.00013	-0.00016	-3e-05	0	-2e-05	0
727	-2e-05	-3e-05	-1e-05	-0.00013	-0.00016	-3e-05	0	-2e-05	0
728	-2e-05	-3e-05	-1e-05	-0.00013	-0.00016	-3e-05	0	-2e-05	0
729	-2e-05	-3e-05	-1e-05	-0.00013	-0.00016	-3e-05	0	-2e-05	0
730	-2e-05	-3e-05	-1e-05	-0.00013	-0.00016	-3e-05	0	-2e-05	0
731	-2e-05	-3e-05	-1e-05	-0.00013	-0.00016	-3e-05	0	-2e-05	0
732	-2e-05	-3e-05	-1e-05	-0.00013	-0.00016	-3e-05	0	-2e-05	0
733	-2e-05	-3e-05	-1e-05	-0.00013	-0.00016	-3e-05	0	-2e-05	0
734	-2e-05	-3e-05	-1e-05	-0.00013	-0.00016	-3e-05	0	-2e-05	0
735	-2e-05	-3e-05	-1e-05	-0.00013	-0.00016	-3e-05	0	-2e-05	0
736	-2e-05	-3e-05	-1e-05	-0.00013	-0.00016	-3e-05	0	-2e-05	0
738	-2e-05	-3e-05	-1e-05	-0.00013	-0.00016	-3e-05	0	-2e-05	0
739	-1e-05	-2e-05	-2e-05	-7e-05	-0.00024	-3e-05	-1e-05	-1e-05	0
740	-5e-05	-3e-05	-4e-05	-2e-05	0.00012	-1e-05	-2e-05	-2e-05	0
741	-5e-05	-3e-05	-4e-05	-2e-05	0.00012	-1e-05	-2e-05	-2e-05	0
742	-5e-05	-3e-05	-4e-05	-2e-05	0.00012	-1e-05	-2e-05	-2e-05	0
743	-5e-05	-3e-05	-4e-05	-2e-05	0.00012	-1e-05	-2e-05	-2e-05	0
744	-5e-05	-3e-05	-4e-05	-2e-05	0.00012	-1e-05	-2e-05	-2e-05	0
745	-5e-05	-3e-05	-4e-05	-2e-05	0.00012	-1e-05	-2e-05	-2e-05	0
746	0	-1e-05	-1e-05	1e-05	-0.00023	-6e-05	-2e-05	1e-05	0
747	0	-1e-05	-1e-05	1e-05	-0.00023	-6e-05	-2e-05	1e-05	0
748	0	-1e-05	-1e-05	1e-05	-0.00023	-6e-05	-2e-05	1e-05	0
749	0	-1e-05	-1e-05	1e-05	-0.00023	-6e-05	-2e-05	1e-05	0
750	0	-1e-05	-1e-05	1e-05	-0.00023	-6e-05	-2e-05	1e-05	0
751	0	-1e-05	-1e-05	1e-05	-0.00023	-6e-05	-2e-05	1e-05	0
752	0	-1e-05	-1e-05	1e-05	-0.00023	-6e-05	-2e-05	1e-05	0
753	0	-1e-05	-1e-05	1e-05	-0.00023	-6e-05	-2e-05	1e-05	0
754	0	-1e-05	-1e-05	1e-05	-0.00023	-6e-05	-2e-05	1e-05	0
755	0	-1e-05	-1e-05	1e-05	-0.00023	-6e-05	-2e-05	1e-05	0
756	0	-1e-05	-1e-05	1e-05	-0.00023	-6e-05	-2e-05	1e-05	0
757	0	-1e-05	-1e-05	1e-05	-0.00023	-6e-05	-2e-05	1e-05	0
758	0	-1e-05	-1e-05	1e-05	-0.00023	-6e-05	-2e-05	1e-05	0
759	0	-1e-05	-1e-05	1e-05	-0.00023	-6e-05	-2e-05	1e-05	0
760	0	-1e-05	-1e-05	1e-05	-0.00023	-6e-05	-2e-05	1e-05	0
761	0	-1e-05	-1e-05	1e-05	-0.00023	-6e-05	-2e-05	1e-05	0
762	0	-1e-05	-1e-05	1e-05	-0.00023	-6e-05	-2e-05	1e-05	0
763	0	-1e-05	-1e-05	1e-05	-0.00023	-6e-05	-2e-05	1e-05	0
764	0	-1e-05	-1e-05	1e-05	-0.00023	-6e-05	-2e-05	1e-05	0
765	0	-1e-05	-1e-05	1e-05	-0.00023	-6e-05	-2e-05	1e-05	0
766	0	-1e-05	-1e-05	1e-05	-0.00023	-6e-05	-2e-05	1e-05	0
767	0	-1e-05	-1e-05	1e-05	-0.00023	-6e-05	-2e-05	1e-05	0
768	-3e-05	3e-05	1e-05	-8e-05	0.00017	1e-05	-1e-05	0	0
769	-1e-05	-2e-05	-3e-05	7e-05	0.00047	1e-05	-1e-05	-3e-05	0
770	-1e-05	-2e-05	-3e-05	7e-05	0.00047	1e-05	-1e-05	-3e-05	0
771	-1e-05	-2e-05	-3e-05	7e-05	0.00047	1e-05	-1e-05	-3e-05	0
772	-1e-05	-2e-05	-3e-05	7e-05	0.00047	1e-05	-1e-05	-3e-05	0
773	-1e-05	-2e-05	-3e-05	7e-05	0.00047	1e-05	-1e-05	-3e-05	0
774	-1e-05	-2e-05	-3e-05	7e-05	0.00047	1e-05	-1e-05	-3e-05	0
775	-1e-05	-2e-05	-3e-05	7e-05	0.00047	1e-05	-1e-05	-3e-05	0
776	-1e-05	-2e-05	-3e-05	7e-05	0.00047	1e-05	-1e-05	-3e-05	0
777	-1e-05	-2e-05	-3e-05	7e-05	0.00047	1e-05	-1e-05	-3e-05	0
778	-1e-05	-2e-05	-3e-05	7e-05	0.00047	1e-05	-1e-05	-3e-05	0
779	-1e-05	-2e-05	-3e-05	7e-05	0.00047	1e-05	-1e-05	-3e-05	0
780	-1e-05	-2e-05	-3e-05	7e-05	0.00047	1e-05	-1e-05	-3e-05	0
781	-1e-05	-2e-05	-3e-05	7e-05	0.00047	1e-05	-1e-05	-3e-05	0
782	-1e-05	-2e-05	-3e-05	7e-05	0.00047	1e-05	-1e-05	-3e-05	0
783	-1e-05	-2e-05	-3e-05	7e-05	0.00047	1e-05	-1e-05	-3e-05	0
784	-1e-05	-2e-05	-3e-05	7e-05	0.00047	1e-05	-1e-05	-3e-05	0
785	-1e-05	-2e-05	-3e-05	7e-05	0.00047	1e-05	-1e-05	-3e-05	0
786	-1e-05	-2e-05	-3e-05	7e-05	0.00047	1e-05	-1e-05	-3e-05	0
788	-1e-05	-2e-05	-3e-05	7e-05	0.00047	1e-05	-1e-05	-3e-05	0
790	-1e-05	-2e-05	-3e-05	7e-05	0.00047	1e-05	-1e-05	-3e-05	0
791	2e-05	0	4e-05	-2e-05	1e-05	-3e-05	-2e-05	2e-05	0
792	-0.00016	-9e-05	-4e-05	3e-05	-2e-05	-2e-05	-3e-05	-2e-05	0
793	-0.00016	-9e-05	-4e-05	3e-05	-2e-05	-2e-05	-3e-05	-2e-05	0
794	-0.00016	-9e-05	-4e-05	3e-05	-2e-05	-2e-05	-3e-05	-2e-05	0
795	-0.00016	-9e-05	-4e-05	3e-05	-2e-05	-2e-05	-3e-05	-2e-05	0
796	-0.00016	-9e-05	-4e-05	3e-05	-2e-05	-2e-05	-3e-05	-2e-05	0
797	-0.00016	-9e-05	-4e-05	3e-05	-2e-05	-2e-05	-3e-05	-2e-05	0
798	-0.00016	-9e-05	-4e-05	3e-05	-2e-05	-2e-05	-3e-05	-2e-05	0
800	-0.00016	-9e-05	-4e-05	3e-05	-2e-05	-2e-05	-3e-05	-2e-05	0
801	-0.00016	-9e-05	-4e-05	3e-05	-2e-05	-2e-05	-3e-05	-2e-05	0
802	-0.00016	-9e-05	-4e-05	3e-05	-2e-05	-2e-05	-3e-05	-2e-05	0
803	-0.00016	-9e-05	-4e-05	3e-05	-2e-05	-2e-05	-3e-05	-2e-05	0
804	-0.00016	-9e-05	-4e-05	3e-05	-2e-05	-2e-05	-3e-05	-2e-05	0
805	-0.00016	-9e-05	-4e-05	3e-05	-2e-05	-2e-05	-3e-05	-2e-05	0
806	1e-05	0	-4e-05	-3e-05	-2e-05	2e-05	0	1e-05	0
808	0.00012	3e-05	2e-05	0	0.00014	0	0	1e-05	0
809	0.00012	3e-05	2e-05	0	0.00014	0	0	1e-05	0
810	0.00012	3e-05	2e-05	0	0.00014	0	0	1e-05	0
811	0.00012	3e-05	2e-05	0	0.00014	0	0	1e-05	0
812	0.00012	3e-05	2e-05	0	0.00014	0	0	1e-05	0
813	0.00012	3e-05	2e-05	0	0.00014	0	0	1e-05	0
814	0.00012	3e-05	2e-05	0	0.00014	0	0	1e-05	0
815	0.00012	3e-05	2e-05	0	0.00014	0	0	1e-05	0
816	0.00012	3e-05	2e-05	0	0.00014	0	0	1e-05	0
817	0.00012	3e-05	2e-05	0	0.00014	0	0	1e-05	0
818	0.00012	3e-05	2e-05	0	0.00014	0	0	1e-05	0
819	0.00012	3e-05	2e-05	0	0.00014	0	0	1e-05	0
820	0.00012	3e-05	2e-05	0	0.00014	0	0	1e-05	0
821	0.00012	3e-05	2e-05	0	0.00014	0	0	1e-05	0
822	0.00012	3e-05	2e-05	0	0.00014	0	0	1e-05	0
823	0.00012	3e-05	2e-05	0	0.00014	0	0	1e-05	0
824	0.00012	3e-05	2e-05	0	0.00014	0	0	1e-05	0
825	0.00012	3e-05	2e-05	0	0.00014	0	0	1e-05	0
826	0.00012	3e-05	2e-05	0	0.00014	0	0	1e-05	0
827	0.00012	3e-05	2e-05	0	0.00014	0	0	1e-05	0
828	0	-1e-05	-5e-05	-8e-05	-0.00011	0	-2e-05	0	0
829	-1e-05	2e-05	0	-3e-05	-8e-05	0	0	-1e-05	0
830	-1e-05	2e-05	0	-3e-05	-8e-05	0	0	-1e-05	0
832	-1e-05	2e-05	0	-3e-05	-8e-05	0	0	-1e-05	0
833	-1e-05	2e-05	0	-3e-05	-8e-05	0	0	-1e-05	0
834	-1e-05	2e-05	0	-3e-05	-8e-05	0	0	-1e-05	0
835	-1e-05	2e-05	0	-3e-05	-8e-05	0	0	-1e-05	0
836	-1e-05	2e-05	0	-3e-05	-8e-05	0	0	-1e-05	0
839	-1e-05	2e-05	0	-3e-05	-8e-05	0	0	-1e-05	0
841	-1e-05	2e-05	0	-3e-05	-8e-05	0	0	-1e-05	0
842	-1e-05	2e-05	0	-3e-05	-8e-05	0	0	-1e-05	0
843	-1e-05	2e-05	0	-3e-05	-8e-05	0	0	-1e-05	0
844	-1e-05	2e-05	0	-3e-05	-8e-05	0	0	-1e-05	0
845	-1e-05	2e-05	0	-3e-05	-8e-05	0	0	-1e-05	0
846	-1e-05	2e-05	0	-3e-05	-8e-05	0	0	-1e-05	0
847	-1e-05	2e-05	0	-3e-05	-8e-05	0	0	-1e-05	0
848	-1e-05	2e-05	0	-3e-05	-8e-05	0	0	-1e-05	0
849	-1e-05	2e-05	0	-3e-05	-8e-05	0	0	-1e-05	0
850	-1e-05	2e-05	0	-3e-05	-8e-05	0	0	-1e-05	0
851	-1e-05	-6e-05	-9e-05	-6e-05	-5e-05	1e-05	1e-05	-1e-05	0
852	-3e-05	-3e-05	1e-05	-6e-05	-0.00011	-1e-05	-1e-05	-1e-05	0
853	-3e-05	-3e-05	1e-05	-6e-05	-0.00011	-1e-05	-1e-05	-1e-05	0
854	-3e-05	-3e-05	1e-05	-6e-05	-0.00011	-1e-05	-1e-05	-1e-05	0
856	-3e-05	-3e-05	1e-05	-6e-05	-0.00011	-1e-05	-1e-05	-1e-05	0
857	-3e-05	-3e-05	1e-05	-6e-05	-0.00011	-1e-05	-1e-05	-1e-05	0
858	-3e-05	-3e-05	1e-05	-6e-05	-0.00011	-1e-05	-1e-05	-1e-05	0
859	-3e-05	-3e-05	1e-05	-6e-05	-0.00011	-1e-05	-1e-05	-1e-05	0
860	-3e-05	-3e-05	1e-05	-6e-05	-0.00011	-1e-05	-1e-05	-1e-05	0
861	-3e-05	-3e-05	1e-05	-6e-05	-0.00011	-1e-05	-1e-05	-1e-05	0
862	-3e-05	-3e-05	1e-05	-6e-05	-0.00011	-1e-05	-1e-05	-1e-05	0
863	-3e-05	-3e-05	1e-05	-6e-05	-0.00011	-1e-05	-1e-05	-1e-05	0
864	-3e-05	-3e-05	1e-05	-6e-05	-0.00011	-1e-05	-1e-05	-1e-05	0
865	-3e-05	-3e-05	1e-05	-6e-05	-0.00011	-1e-05	-1e-05	-1e-05	0
866	-3e-05	-3e-05	1e-05	-6e-05	-0.00011	-1e-05	-1e-05	-1e-05	0
867	-3e-05	-3e-05	1e-05	-6e-05	-0.00011	-1e-05	-1e-05	-1e-05	0
868	-3e-05	-3e-05	1e-05	-6e-05	-0.00011	-1e-05	-1e-05	-1e-05	0
869	-3e-05	-3e-05	1e-05	-6e-05	-0.00011	-1e-05	-1e-05	-1e-05	0
870	-3e-05	-3e-05	1e-05	-6e-05	-0.00011	-1e-05	-1e-05	-1e-05	0
871	-3e-05	-3e-05	1e-05	-6e-05	-0.00011	-1e-05	-1e-05	-1e-05	0
872	-3e-05	-3e-05	1e-05	-6e-05	-0.00011	-1e-05	-1e-05	-1e-05	0
873	-3e-05	-3e-05	1e-05	-6e-05	-0.00011	-1e-05	-1e-05	-1e-05	0
874	3e-05	2e-05	1e-05	2e-05	6e-05	0	-1e-05	-4e-05	0
875	-1e-05	0	-4e-05	-0.00025	-0.00019	-2e-05	-4e-05	-2e-05	0
876	-1e-05	0	-4e-05	-0.00025	-0.00019	-2e-05	-4e-05	-2e-05	0
877	-1e-05	0	-4e-05	-0.00025	-0.00019	-2e-05	-4e-05	-2e-05	0
878	-1e-05	0	-4e-05	-0.00025	-0.00019	-2e-05	-4e-05	-2e-05	0
879	-1e-05	0	-4e-05	-0.00025	-0.00019	-2e-05	-4e-05	-2e-05	0
880	-1e-05	0	-4e-05	-0.00025	-0.00019	-2e-05	-4e-05	-2e-05	0
881	-1e-05	0	-4e-05	-0.00025	-0.00019	-2e-05	-4e-05	-2e-05	0
882	-1e-05	0	-4e-05	-0.00025	-0.00019	-2e-05	-4e-05	-2e-05	0
883	-1e-05	0	-4e-05	-0.00025	-0.00019	-2e-05	-4e-05	-2e-05	0
884	-1e-05	0	-4e-05	-0.00025	-0.00019	-2e-05	-4e-05	-2e-05	0
885	-1e-05	0	-4e-05	-0.00025	-0.00019	-2e-05	-4e-05	-2e-05	0
887	-1e-05	0	-4e-05	-0.00025	-0.00019	-2e-05	-4e-05	-2e-05	0
890	3e-05	2e-05	-2e-05	-3e-05	-0.00022	-2e-05	-1e-05	-2e-05	0
891	3e-05	2e-05	-2e-05	-3e-05	-0.00022	-2e-05	-1e-05	-2e-05	0
892	3e-05	2e-05	-2e-05	-3e-05	-0.00022	-2e-05	-1e-05	-2e-05	0
893	3e-05	2e-05	-2e-05	-3e-05	-0.00022	-2e-05	-1e-05	-2e-05	0
894	3e-05	2e-05	-2e-05	-3e-05	-0.00022	-2e-05	-1e-05	-2e-05	0
895	3e-05	2e-05	-2e-05	-3e-05	-0.00022	-2e-05	-1e-05	-2e-05	0
896	3e-05	2e-05	-2e-05	-3e-05	-0.00022	-2e-05	-1e-05	-2e-05	0
897	3e-05	2e-05	-2e-05	-3e-05	-0.00022	-2e-05	-1e-05	-2e-05	0
898	3e-05	2e-05	-2e-05	-3e-05	-0.00022	-2e-05	-1e-05	-2e-05	0
899	3e-05	2e-05	-2e-05	-3e-05	-0.00022	-2e-05	-1e-05	-2e-05	0
900	3e-05	2e-05	-2e-05	-3e-05	-0.00022	-2e-05	-1e-05	-2e-05	0
901	3e-05	2e-05	-2e-05	-3e-05	-0.00022	-2e-05	-1e-05	-2e-05	0
902	3e-05	2e-05	-2e-05	-3e-05	-0.00022	-2e-05	-1e-05	-2e-05	0
903	3e-05	2e-05	-2e-05	-3e-05	-0.00022	-2e-05	-1e-05	-2e-05	0
904	3e-05	2e-05	-2e-05	-3e-05	-0.00022	-2e-05	-1e-05	-2e-05	0
905	3e-05	2e-05	-2e-05	-3e-05	-0.00022	-2e-05	-1e-05	-2e-05	0
906	3e-05	2e-05	-2e-05	-3e-05	-0.00022	-2e-05	-1e-05	-2e-05	0
907	3e-05	2e-05	-2e-05	-3e-05	-0.00022	-2e-05	-1e-05	-2e-05	0
908	3e-05	2e-05	-2e-05	-3e-05	-0.00022	-2e-05	-1e-05	-2e-05	0
909	3e-05	2e-05	-2e-05	-3e-05	-0.00022	-2e-05	-1e-05	-2e-05	0
910	3e-05	2e-05	-2e-05	-3e-05	-0.00022	-2e-05	-1e-05	-2e-05	0
911	-6e-05	-2e-05	-1e-05	-6e-05	0.00013	1e-05	0	2e-05	0
912	-6e-05	-2e-05	-1e-05	-6e-05	0.00013	1e-05	0	2e-05	0
913	-6e-05	-2e-05	-1e-05	-6e-05	0.00013	1e-05	0	2e-05	0
914	-6e-05	-2e-05	-1e-05	-6e-05	0.00013	1e-05	0	2e-05	0
915	-6e-05	-2e-05	-1e-05	-6e-05	0.00013	1e-05	0	2e-05	0
916	-6e-05	-2e-05	-1e-05	-6e-05	0.00013	1e-05	0	2e-05	0
917	-6e-05	-2e-05	-1e-05	-6e-05	0.00013	1e-05	0	2e-05	0
918	-6e-05	-2e-05	-1e-05	-6e-05	0.00013	1e-05	0	2e-05	0
919	-6e-05	-2e-05	-1e-05	-6e-05	0.00013	1e-05	0	2e-05	0
920	-6e-05	-2e-05	-1e-05	-6e-05	0.00013	1e-05	0	2e-05	0
921	-6e-05	-2e-05	-1e-05	-6e-05	0.00013	1e-05	0	2e-05	0
922	-6e-05	-2e-05	-1e-05	-6e-05	0.00013	1e-05	0	2e-05	0
923	-6e-05	-2e-05	-1e-05	-6e-05	0.00013	1e-05	0	2e-05	0
924	-6e-05	-2e-05	-1e-05	-6e-05	0.00013	1e-05	0	2e-05	0
925	-6e-05	-2e-05	-1e-05	-6e-05	0.00013	1e-05	0	2e-05	0
926	-6e-05	-2e-05	-1e-05	-6e-05	0.00013	1e-05	0	2e-05	0
927	-6e-05	-2e-05	-1e-05	-6e-05	0.00013	1e-05	0	2e-05	0
928	-6e-05	-2e-05	-1e-05	-6e-05	0.00013	1e-05	0	2e-05	0
929	-6e-05	-2e-05	-1e-05	-6e-05	0.00013	1e-05	0	2e-05	0
930	-6e-05	-2e-05	-1e-05	-6e-05	0.00013	1e-05	0	2e-05	0
931	-6e-05	-2e-05	-1e-05	-6e-05	0.00013	1e-05	0	2e-05	0
932	-6e-05	-2e-05	-1e-05	-6e-05	0.00013	1e-05	0	2e-05	0
933	-6e-05	-2e-05	-1e-05	-6e-05	0.00013	1e-05	0	2e-05	0
934	-6e-05	-2e-05	-1e-05	-6e-05	0.00013	1e-05	0	2e-05	0
935	0	0	3e-05	5e-05	2e-05	3e-05	2e-05	2e-05	0
936	0	0	3e-05	5e-05	2e-05	3e-05	2e-05	2e-05	0
938	0	0	3e-05	5e-05	2e-05	3e-05	2e-05	2e-05	0
939	0	0	3e-05	5e-05	2e-05	3e-05	2e-05	2e-05	0
940	0	0	3e-05	5e-05	2e-05	3e-05	2e-05	2e-05	0
941	0	0	3e-05	5e-05	2e-05	3e-05	2e-05	2e-05	0
942	0	0	3e-05	5e-05	2e-05	3e-05	2e-05	2e-05	0
943	0	0	3e-05	5e-05	2e-05	3e-05	2e-05	2e-05	0
945	0	0	3e-05	5e-05	2e-05	3e-05	2e-05	2e-05	0
946	0	0	3e-05	5e-05	2e-05	3e-05	2e-05	2e-05	0
947	0	0	3e-05	5e-05	2e-05	3e-05	2e-05	2e-05	0
948	0	0	3e-05	5e-05	2e-05	3e-05	2e-05	2e-05	0
949	0	0	3e-05	5e-05	2e-05	3e-05	2e-05	2e-05	0
950	0	0	3e-05	5e-05	2e-05	3e-05	2e-05	2e-05	0
951	0	0	3e-05	5e-05	2e-05	3e-05	2e-05	2e-05	0
952	0	0	3e-05	5e-05	2e-05	3e-05	2e-05	2e-05	0
953	0	0	3e-05	5e-05	2e-05	3e-05	2e-05	2e-05	0
954	0	0	3e-05	5e-05	2e-05	3e-05	2e-05	2e-05	0
955	0	0	3e-05	5e-05	2e-05	3e-05	2e-05	2e-05	0
956	0	0	3e-05	5e-05	2e-05	3e-05	2e-05	2e-05	0
957	0	0	3e-05	5e-05	2e-05	3e-05	2e-05	2e-05	0
958	0	0	3e-05	5e-05	2e-05	3e-05	2e-05	2e-05	0
959	0	0	3e-05	5e-05	2e-05	3e-05	2e-05	2e-05	0
960	0	0	3e-05	5e-05	2e-05	3e-05	2e-05	2e-05	0
961	0	0	3e-05	5e-05	2e-05	3e-05	2e-05	2e-05	0
962	0	0	3e-05	5e-05	2e-05	3e-05	2e-05	2e-05	0
963	0	0	3e-05	5e-05	2e-05	3e-05	2e-05	2e-05	0
964	0	-1e-05	-1e-05	-5e-05	-2e-05	-3e-05	1e-05	-2e-05	0
965	0	-1e-05	-1e-05	-5e-05	-2e-05	-3e-05	1e-05	-2e-05	0
966	0	-1e-05	-1e-05	-5e-05	-2e-05	-3e-05	1e-05	-2e-05	0
967	0	-1e-05	-1e-05	-5e-05	-2e-05	-3e-05	1e-05	-2e-05	0
968	0	-1e-05	-1e-05	-5e-05	-2e-05	-3e-05	1e-05	-2e-05	0
969	0	-1e-05	-1e-05	-5e-05	-2e-05	-3e-05	1e-05	-2e-05	0
970	0	-1e-05	-1e-05	-5e-05	-2e-05	-3e-05	1e-05	-2e-05	0
971	-1e-05	-5e-05	-6e-05	0.00011	-3e-05	-1e-05	0	-3e-05	0
972	-1e-05	-5e-05	-6e-05	0.00011	-3e-05	-1e-05	0	-3e-05	0
973	-1e-05	-5e-05	-6e-05	0.00011	-3e-05	-1e-05	0	-3e-05	0
974	-1e-05	-5e-05	-6e-05	0.00011	-3e-05	-1e-05	0	-3e-05	0
975	-1e-05	-5e-05	-6e-05	0.00011	-3e-05	-1e-05	0	-3e-05	0
976	-1e-05	-5e-05	-6e-05	0.00011	-3e-05	-1e-05	0	-3e-05	0
977	-1e-05	-5e-05	-6e-05	0.00011	-3e-05	-1e-05	0	-3e-05	0
978	-1e-05	-5e-05	-6e-05	0.00011	-3e-05	-1e-05	0	-3e-05	0
979	-1e-05	-5e-05	-6e-05	0.00011	-3e-05	-1e-05	0	-3e-05	0
980	-1e-05	-5e-05	-6e-05	0.00011	-3e-05	-1e-05	0	-3e-05	0
981	-1e-05	-5e-05	-6e-05	0.00011	-3e-05	-1e-05	0	-3e-05	0
982	-1e-05	-5e-05	-6e-05	0.00011	-3e-05	-1e-05	0	-3e-05	0
984	-1e-05	-5e-05	-6e-05	0.00011	-3e-05	-1e-05	0	-3e-05	0
985	-1e-05	-5e-05	-6e-05	0.00011	-3e-05	-1e-05	0	-3e-05	0
987	-1e-05	2e-05	2e-05	-0.0001	0.00045	2e-05	0	0	0
990	-1e-05	2e-05	2e-05	-0.0001	0.00045	2e-05	0	0	0
991	-1e-05	2e-05	2e-05	-0.0001	0.00045	2e-05	0	0	0
992	-1e-05	2e-05	2e-05	-0.0001	0.00045	2e-05	0	0	0
993	1e-05	-2e-05	-3e-05	-8e-05	-4e-05	-1e-05	-4e-05	-3e-05	0
994	1e-05	-2e-05	-3e-05	-8e-05	-4e-05	-1e-05	-4e-05	-3e-05	0
995	1e-05	-2e-05	-3e-05	-8e-05	-4e-05	-1e-05	-4e-05	-3e-05	0
996	1e-05	-2e-05	-3e-05	-8e-05	-4e-05	-1e-05	-4e-05	-3e-05	0
997	1e-05	-2e-05	-3e-05	-8e-05	-4e-05	-1e-05	-4e-05	-3e-05	0
998	1e-05	-2e-05	-3e-05	-8e-05	-4e-05	-1e-05	-4e-05	-3e-05	0
999	1e-05	-2e-05	-3e-05	-8e-05	-4e-05	-1e-05	-4e-05	-3e-05	0
1000	1e-05	-2e-05	-3e-05	-8e-05	-4e-05	-1e-05	-4e-05	-3e-05	0
1001	1e-05	-2e-05	-3e-05	-8e-05	-4e-05	-1e-05	-4e-05	-3e-05	0
1002	1e-05	-2e-05	-3e-05	-8e-05	-4e-05	-1e-05	-4e-05	-3e-05	0
1003	1e-05	-2e-05	-3e-05	-8e-05	-4e-05	-1e-05	-4e-05	-3e-05	0
1004	1e-05	-2e-05	-3e-05	-8e-05	-4e-05	-1e-05	-4e-05	-3e-05	0
1005	1e-05	-2e-05	-3e-05	-8e-05	-4e-05	-1e-05	-4e-05	-3e-05	0
1006	1e-05	-2e-05	-3e-05	-8e-05	-4e-05	-1e-05	-4e-05	-3e-05	0
1007	1e-05	-2e-05	-3e-05	-8e-05	-4e-05	-1e-05	-4e-05	-3e-05	0
1008	1e-05	-2e-05	-3e-05	-8e-05	-4e-05	-1e-05	-4e-05	-3e-05	0
1009	1e-05	-2e-05	-3e-05	-8e-05	-4e-05	-1e-05	-4e-05	-3e-05	0
1010	1e-05	-2e-05	-3e-05	-8e-05	-4e-05	-1e-05	-4e-05	-3e-05	0
1011	1e-05	-2e-05	-3e-05	-8e-05	-4e-05	-1e-05	-4e-05	-3e-05	0
1012	1e-05	-2e-05	-3e-05	-8e-05	-4e-05	-1e-05	-4e-05	-3e-05	0
1013	1e-05	-2e-05	-3e-05	-8e-05	-4e-05	-1e-05	-4e-05	-3e-05	0
1016	1e-05	-2e-05	-3e-05	-8e-05	-4e-05	-1e-05	-4e-05	-3e-05	0
1019	1e-05	-2e-05	-3e-05	-8e-05	-4e-05	-1e-05	-4e-05	-3e-05	0
1021	1e-05	-2e-05	-3e-05	-8e-05	-4e-05	-1e-05	-4e-05	-3e-05	0
1022	1e-05	-2e-05	-3e-05	-8e-05	-4e-05	-1e-05	-4e-05	-3e-05	0
1023	1e-05	-2e-05	-3e-05	-8e-05	-4e-05	-1e-05	-4e-05	-3e-05	0
1024	1e-05	-2e-05	-3e-05	-8e-05	-4e-05	-1e-05	-4e-05	-3e-05	0
1025	-0.00013	-6e-05	-7e-05	2e-05	0	-2e-05	-1e-05	-2e-05	0
1026	-0.00013	-6e-05	-7e-05	2e-05	0	-2e-05	-1e-05	-2e-05	0
1027	-0.00013	-6e-05	-7e-05	2e-05	0	-2e-05	-1e-05	-2e-05	0
1028	-0.00013	-6e-05	-7e-05	2e-05	0	-2e-05	-1e-05	-2e-05	0
1029	-0.00013	-6e-05	-7e-05	2e-05	0	-2e-05	-1e-05	-2e-05	0
1030	-0.00013	-6e-05	-7e-05	2e-05	0	-2e-05	-1e-05	-2e-05	0
1031	-0.00013	-6e-05	-7e-05	2e-05	0	-2e-05	-1e-05	-2e-05	0
1032	-0.00013	-6e-05	-7e-05	2e-05	0	-2e-05	-1e-05	-2e-05	0
1034	-0.00013	-6e-05	-7e-05	2e-05	0	-2e-05	-1e-05	-2e-05	0
1035	3e-05	-2e-05	2e-05	2e-05	-1e-05	-3e-05	-2e-05	-1e-05	0
1036	3e-05	-2e-05	2e-05	2e-05	-1e-05	-3e-05	-2e-05	-1e-05	0
1038	3e-05	-2e-05	2e-05	2e-05	-1e-05	-3e-05	-2e-05	-1e-05	0
1039	3e-05	-2e-05	2e-05	2e-05	-1e-05	-3e-05	-2e-05	-1e-05	0
1040	3e-05	-2e-05	2e-05	2e-05	-1e-05	-3e-05	-2e-05	-1e-05	0
1041	3e-05	-2e-05	2e-05	2e-05	-1e-05	-3e-05	-2e-05	-1e-05	0
1042	3e-05	-2e-05	2e-05	2e-05	-1e-05	-3e-05	-2e-05	-1e-05	0
1043	3e-05	-2e-05	2e-05	2e-05	-1e-05	-3e-05	-2e-05	-1e-05	0
1044	3e-05	-2e-05	2e-05	2e-05	-1e-05	-3e-05	-2e-05	-1e-05	0
1045	-4e-05	-6e-05	-3e-05	-2e-05	-8e-05	1e-05	1e-05	0	0
1046	-4e-05	-6e-05	-3e-05	-2e-05	-8e-05	1e-05	1e-05	0	0
1047	-4e-05	-6e-05	-3e-05	-2e-05	-8e-05	1e-05	1e-05	0	0
1048	-4e-05	-6e-05	-3e-05	-2e-05	-8e-05	1e-05	1e-05	0	0
1049	-4e-05	-6e-05	-3e-05	-2e-05	-8e-05	1e-05	1e-05	0	0
1050	-4e-05	-6e-05	-3e-05	-2e-05	-8e-05	1e-05	1e-05	0	0
1051	-4e-05	-6e-05	-3e-05	-2e-05	-8e-05	1e-05	1e-05	0	0
1052	-4e-05	-6e-05	-3e-05	-2e-05	-8e-05	1e-05	1e-05	0	0
1054	-2e-05	-1e-05	-3e-05	-2e-05	0.00011	0	-1e-05	1e-05	0
1055	-2e-05	-1e-05	-3e-05	-2e-05	0.00011	0	-1e-05	1e-05	0
1056	-2e-05	-1e-05	-3e-05	-2e-05	0.00011	0	-1e-05	1e-05	0
1057	-2e-05	-1e-05	-3e-05	-2e-05	0.00011	0	-1e-05	1e-05	0
1058	-2e-05	-1e-05	-3e-05	-2e-05	0.00011	0	-1e-05	1e-05	0
1059	-2e-05	-1e-05	-3e-05	-2e-05	0.00011	0	-1e-05	1e-05	0
1060	-2e-05	-1e-05	-3e-05	-2e-05	0.00011	0	-1e-05	1e-05	0
1061	-2e-05	-1e-05	-3e-05	-2e-05	0.00011	0	-1e-05	1e-05	0
1062	-2e-05	-1e-05	-3e-05	-2e-05	0.00011	0	-1e-05	1e-05	0
1063	-2e-05	-1e-05	-3e-05	-2e-05	0.00011	0	-1e-05	1e-05	0
1064	-2e-05	-1e-05	-3e-05	-2e-05	0.00011	0	-1e-05	1e-05	0
1065	-2e-05	-1e-05	-3e-05	-2e-05	0.00011	0	-1e-05	1e-05	0
1066	-2e-05	-1e-05	-3e-05	-2e-05	0.00011	0	-1e-05	1e-05	0
1067	-2e-05	-1e-05	-3e-05	-2e-05	0.00011	0	-1e-05	1e-05	0
1068	2e-05	-3e-05	0	3e-05	-4e-05	-1e-05	-1e-05	-1e-05	0
1069	2e-05	2e-05	4e-05	-3e-05	-6e-05	-1e-05	-2e-05	-1e-05	0
1070	2e-05	2e-05	4e-05	-3e-05	-6e-05	-1e-05	-2e-05	-1e-05	0
1071	2e-05	2e-05	4e-05	-3e-05	-6e-05	-1e-05	-2e-05	-1e-05	0
1072	2e-05	2e-05	4e-05	-3e-05	-6e-05	-1e-05	-2e-05	-1e-05	0
1073	2e-05	2e-05	4e-05	-3e-05	-6e-05	-1e-05	-2e-05	-1e-05	0
1074	2e-05	2e-05	4e-05	-3e-05	-6e-05	-1e-05	-2e-05	-1e-05	0
1075	2e-05	2e-05	4e-05	-3e-05	-6e-05	-1e-05	-2e-05	-1e-05	0
1076	2e-05	2e-05	4e-05	-3e-05	-6e-05	-1e-05	-2e-05	-1e-05	0
1077	2e-05	2e-05	4e-05	-3e-05	-6e-05	-1e-05	-2e-05	-1e-05	0
1078	2e-05	2e-05	4e-05	-3e-05	-6e-05	-1e-05	-2e-05	-1e-05	0
1079	2e-05	2e-05	4e-05	-3e-05	-6e-05	-1e-05	-2e-05	-1e-05	0
1080	2e-05	2e-05	4e-05	-3e-05	-6e-05	-1e-05	-2e-05	-1e-05	0
1081	2e-05	2e-05	4e-05	-3e-05	-6e-05	-1e-05	-2e-05	-1e-05	0
1082	2e-05	2e-05	4e-05	-3e-05	-6e-05	-1e-05	-2e-05	-1e-05	0
1083	2e-05	2e-05	4e-05	-3e-05	-6e-05	-1e-05	-2e-05	-1e-05	0
1084	2e-05	2e-05	4e-05	-3e-05	-6e-05	-1e-05	-2e-05	-1e-05	0
1085	2e-05	2e-05	4e-05	-3e-05	-6e-05	-1e-05	-2e-05	-1e-05	0
1086	2e-05	2e-05	4e-05	-3e-05	-6e-05	-1e-05	-2e-05	-1e-05	0
1088	2e-05	2e-05	4e-05	-3e-05	-6e-05	-1e-05	-2e-05	-1e-05	0
1089	2e-05	2e-05	4e-05	-3e-05	-6e-05	-1e-05	-2e-05	-1e-05	0
1090	2e-05	2e-05	4e-05	-3e-05	-6e-05	-1e-05	-2e-05	-1e-05	0
1091	2e-05	2e-05	4e-05	-3e-05	-6e-05	-1e-05	-2e-05	-1e-05	0
1092	2e-05	2e-05	4e-05	-3e-05	-6e-05	-1e-05	-2e-05	-1e-05	0
1093	2e-05	2e-05	4e-05	-3e-05	-6e-05	-1e-05	-2e-05	-1e-05	0
1094	2e-05	2e-05	4e-05	-3e-05	-6e-05	-1e-05	-2e-05	-1e-05	0
1095	2e-05	2e-05	4e-05	-3e-05	-6e-05	-1e-05	-2e-05	-1e-05	0
1096	2e-05	2e-05	4e-05	-3e-05	-6e-05	-1e-05	-2e-05	-1e-05	0
1097	2e-05	2e-05	4e-05	-3e-05	-6e-05	-1e-05	-2e-05	-1e-05	0
1098	2e-05	2e-05	4e-05	-3e-05	-6e-05	-1e-05	-2e-05	-1e-05	0
1099	0	2e-05	1e-05	-0.00014	-0.00014	0	0	-2e-05	0
1100	0	2e-05	1e-05	-0.00014	-0.00014	0	0	-2e-05	0
1101	0	2e-05	1e-05	-0.00014	-0.00014	0	0	-2e-05	0
1102	0	2e-05	1e-05	-0.00014	-0.00014	0	0	-2e-05	0
1103	0	2e-05	1e-05	-0.00014	-0.00014	0	0	-2e-05	0
1104	0	2e-05	1e-05	-0.00014	-0.00014	0	0	-2e-05	0
1105	-9e-05	-8e-05	-4e-05	-0.0001	-8e-05	-1e-05	-3e-05	-4e-05	0
1106	-9e-05	-8e-05	-4e-05	-0.0001	-8e-05	-1e-05	-3e-05	-4e-05	0
1107	-9e-05	-8e-05	-4e-05	-0.0001	-8e-05	-1e-05	-3e-05	-4e-05	0
1108	-9e-05	-8e-05	-4e-05	-0.0001	-8e-05	-1e-05	-3e-05	-4e-05	0
1109	-9e-05	-8e-05	-4e-05	-0.0001	-8e-05	-1e-05	-3e-05	-4e-05	0
1110	-9e-05	-8e-05	-4e-05	-0.0001	-8e-05	-1e-05	-3e-05	-4e-05	0
1111	-9e-05	-8e-05	-4e-05	-0.0001	-8e-05	-1e-05	-3e-05	-4e-05	0
1112	-9e-05	-8e-05	-4e-05	-0.0001	-8e-05	-1e-05	-3e-05	-4e-05	0
1113	3e-05	-1e-05	4e-05	3e-05	7e-05	-1e-05	-2e-05	0	0
1114	3e-05	-1e-05	4e-05	3e-05	7e-05	-1e-05	-2e-05	0	0
1115	3e-05	-1e-05	4e-05	3e-05	7e-05	-1e-05	-2e-05	0	0
1116	3e-05	-1e-05	4e-05	3e-05	7e-05	-1e-05	-2e-05	0	0
1117	3e-05	-1e-05	4e-05	3e-05	7e-05	-1e-05	-2e-05	0	0
1118	3e-05	-1e-05	4e-05	3e-05	7e-05	-1e-05	-2e-05	0	0
1119	3e-05	-1e-05	4e-05	3e-05	7e-05	-1e-05	-2e-05	0	0
1120	3e-05	-1e-05	4e-05	3e-05	7e-05	-1e-05	-2e-05	0	0
1121	3e-05	-1e-05	4e-05	3e-05	7e-05	-1e-05	-2e-05	0	0
1122	3e-05	-1e-05	4e-05	3e-05	7e-05	-1e-05	-2e-05	0	0
1123	3e-05	-1e-05	4e-05	3e-05	7e-05	-1e-05	-2e-05	0	0
1124	3e-05	-1e-05	4e-05	3e-05	7e-05	-1e-05	-2e-05	0	0
1125	3e-05	-1e-05	4e-05	3e-05	7e-05	-1e-05	-2e-05	0	0
1126	3e-05	-1e-05	4e-05	3e-05	7e-05	-1e-05	-2e-05	0	0
1127	3e-05	-1e-05	4e-05	3e-05	7e-05	-1e-05	-2e-05	0	0
1128	2e-05	5e-05	6e-05	7e-05	0.00047	4e-05	3e-05	1e-05	0
1129	-1e-05	-1e-05	-1e-05	1e-05	-0.00012	-2e-05	0	-1e-05	0
1130	-1e-05	-1e-05	-1e-05	1e-05	-0.00012	-2e-05	0	-1e-05	0
1131	-1e-05	-1e-05	-1e-05	1e-05	-0.00012	-2e-05	0	-1e-05	0
1132	-1e-05	-1e-05	-1e-05	1e-05	-0.00012	-2e-05	0	-1e-05	0
1133	-1e-05	-1e-05	-1e-05	1e-05	-0.00012	-2e-05	0	-1e-05	0
1134	-1e-05	-1e-05	-1e-05	1e-05	-0.00012	-2e-05	0	-1e-05	0
1135	-1e-05	-1e-05	-1e-05	1e-05	-0.00012	-2e-05	0	-1e-05	0
1137	-1e-05	-1e-05	-1e-05	1e-05	-0.00012	-2e-05	0	-1e-05	0
1139	-1e-05	-1e-05	-1e-05	1e-05	-0.00012	-2e-05	0	-1e-05	0
1140	-1e-05	-1e-05	-1e-05	1e-05	-0.00012	-2e-05	0	-1e-05	0
1141	-1e-05	-1e-05	-1e-05	1e-05	-0.00012	-2e-05	0	-1e-05	0
1142	-1e-05	-1e-05	-1e-05	1e-05	-0.00012	-2e-05	0	-1e-05	0
1143	-1e-05	-1e-05	-1e-05	1e-05	-0.00012	-2e-05	0	-1e-05	0
1144	-1e-05	-1e-05	-1e-05	1e-05	-0.00012	-2e-05	0	-1e-05	0
1145	-1e-05	-1e-05	-1e-05	1e-05	-0.00012	-2e-05	0	-1e-05	0
1146	-1e-05	-1e-05	-1e-05	1e-05	-0.00012	-2e-05	0	-1e-05	0
1147	-1e-05	-1e-05	-1e-05	1e-05	-0.00012	-2e-05	0	-1e-05	0
1148	-1e-05	-1e-05	-1e-05	1e-05	-0.00012	-2e-05	0	-1e-05	0
1149	-1e-05	-1e-05	-1e-05	1e-05	-0.00012	-2e-05	0	-1e-05	0
1150	-1e-05	-1e-05	-1e-05	1e-05	-0.00012	-2e-05	0	-1e-05	0
1151	-4e-05	-3e-05	0	-1e-05	-0.00016	-2e-05	-1e-05	-1e-05	0
1152	-4e-05	-3e-05	0	-1e-05	-0.00016	-2e-05	-1e-05	-1e-05	0
1153	-4e-05	-3e-05	0	-1e-05	-0.00016	-2e-05	-1e-05	-1e-05	0
1154	-4e-05	-3e-05	0	-1e-05	-0.00016	-2e-05	-1e-05	-1e-05	0
1155	-4e-05	-3e-05	0	-1e-05	-0.00016	-2e-05	-1e-05	-1e-05	0
1156	-4e-05	-3e-05	0	-1e-05	-0.00016	-2e-05	-1e-05	-1e-05	0
1157	-4e-05	-3e-05	0	-1e-05	-0.00016	-2e-05	-1e-05	-1e-05	0
1158	1e-05	2e-05	2e-05	2e-05	-5e-05	1e-05	0	-2e-05	0
1159	1e-05	2e-05	2e-05	2e-05	-5e-05	1e-05	0	-2e-05	0
1160	1e-05	2e-05	2e-05	2e-05	-5e-05	1e-05	0	-2e-05	0
1161	1e-05	2e-05	2e-05	2e-05	-5e-05	1e-05	0	-2e-05	0
1162	1e-05	2e-05	2e-05	2e-05	-5e-05	1e-05	0	-2e-05	0
1163	1e-05	2e-05	2e-05	2e-05	-5e-05	1e-05	0	-2e-05	0
1164	1e-05	2e-05	2e-05	2e-05	-5e-05	1e-05	0	-2e-05	0
1165	-6e-05	-1e-05	-2e-05	-2e-05	-0.00019	-3e-05	-3e-05	-3e-05	0
1166	-6e-05	-1e-05	-2e-05	-2e-05	-0.00019	-3e-05	-3e-05	-3e-05	0
1167	-6e-05	-1e-05	-2e-05	-2e-05	-0.00019	-3e-05	-3e-05	-3e-05	0
1168	-6e-05	-1e-05	-2e-05	-2e-05	-0.00019	-3e-05	-3e-05	-3e-05	0
1169	-6e-05	-1e-05	-2e-05	-2e-05	-0.00019	-3e-05	-3e-05	-3e-05	0
1170	-6e-05	-1e-05	-2e-05	-2e-05	-0.00019	-3e-05	-3e-05	-3e-05	0
1171	-6e-05	-1e-05	-2e-05	-2e-05	-0.00019	-3e-05	-3e-05	-3e-05	0
1172	-6e-05	-1e-05	-2e-05	-2e-05	-0.00019	-3e-05	-3e-05	-3e-05	0
1173	-6e-05	-1e-05	-2e-05	-2e-05	-0.00019	-3e-05	-3e-05	-3e-05	0
1174	-6e-05	-1e-05	-2e-05	-2e-05	-0.00019	-3e-05	-3e-05	-3e-05	0
1175	-6e-05	-1e-05	-2e-05	-2e-05	-0.00019	-3e-05	-3e-05	-3e-05	0
1176	-6e-05	-1e-05	-2e-05	-2e-05	-0.00019	-3e-05	-3e-05	-3e-05	0
1177	-6e-05	-1e-05	-2e-05	-2e-05	-0.00019	-3e-05	-3e-05	-3e-05	0
1178	-6e-05	-1e-05	-2e-05	-2e-05	-0.00019	-3e-05	-3e-05	-3e-05	0
1179	-6e-05	-1e-05	-2e-05	-2e-05	-0.00019	-3e-05	-3e-05	-3e-05	0
1180	0	2e-05	1e-05	0.0001	0	3e-05	-1e-05	1e-05	0
1181	0	2e-05	1e-05	0.0001	0	3e-05	-1e-05	1e-05	0
1182	0	2e-05	1e-05	0.0001	0	3e-05	-1e-05	1e-05	0
1183	0	2e-05	1e-05	0.0001	0	3e-05	-1e-05	1e-05	0
1184	0	2e-05	1e-05	0.0001	0	3e-05	-1e-05	1e-05	0
1185	0	2e-05	1e-05	0.0001	0	3e-05	-1e-05	1e-05	0
1186	0	2e-05	1e-05	0.0001	0	3e-05	-1e-05	1e-05	0
1188	-2e-05	2e-05	0	-3e-05	0.00034	0	-3e-05	-3e-05	0
1189	-3e-05	0	1e-05	8e-05	-7e-05	-3e-05	-1e-05	0	0
1190	-3e-05	0	1e-05	8e-05	-7e-05	-3e-05	-1e-05	0	0
1191	-3e-05	0	1e-05	8e-05	-7e-05	-3e-05	-1e-05	0	0
1192	-3e-05	0	1e-05	8e-05	-7e-05	-3e-05	-1e-05	0	0
1193	-3e-05	0	1e-05	8e-05	-7e-05	-3e-05	-1e-05	0	0
1194	-3e-05	0	1e-05	8e-05	-7e-05	-3e-05	-1e-05	0	0
1195	-3e-05	0	1e-05	8e-05	-7e-05	-3e-05	-1e-05	0	0
1196	-3e-05	0	1e-05	8e-05	-7e-05	-3e-05	-1e-05	0	0
1197	-3e-05	0	1e-05	8e-05	-7e-05	-3e-05	-1e-05	0	0
1198	-3e-05	0	1e-05	8e-05	-7e-05	-3e-05	-1e-05	0	0
1199	-3e-05	0	1e-05	8e-05	-7e-05	-3e-05	-1e-05	0	0
1200	-3e-05	0	1e-05	8e-05	-7e-05	-3e-05	-1e-05	0	0
1201	-3e-05	0	1e-05	8e-05	-7e-05	-3e-05	-1e-05	0	0
1202	-3e-05	0	1e-05	8e-05	-7e-05	-3e-05	-1e-05	0	0
1203	-3e-05	0	1e-05	8e-05	-7e-05	-3e-05	-1e-05	0	0
1204	-3e-05	0	1e-05	8e-05	-7e-05	-3e-05	-1e-05	0	0
1205	-3e-05	0	1e-05	8e-05	-7e-05	-3e-05	-1e-05	0	0
1206	-3e-05	0	1e-05	8e-05	-7e-05	-3e-05	-1e-05	0	0
1207	-3e-05	0	1e-05	8e-05	-7e-05	-3e-05	-1e-05	0	0
1208	-3e-05	0	1e-05	8e-05	-7e-05	-3e-05	-1e-05	0	0
1209	-3e-05	0	1e-05	8e-05	-7e-05	-3e-05	-1e-05	0	0
1210	-3e-05	0	1e-05	8e-05	-7e-05	-3e-05	-1e-05	0	0
1211	-0.00014	-7e-05	-7e-05	-5e-05	0.00021	2e-05	0	-5e-05	0
1212	-0.00014	-7e-05	-7e-05	-5e-05	0.00021	2e-05	0	-5e-05	0
1213	-0.00014	-7e-05	-7e-05	-5e-05	0.00021	2e-05	0	-5e-05	0
1214	-0.00014	-7e-05	-7e-05	-5e-05	0.00021	2e-05	0	-5e-05	0
1215	-0.00014	-7e-05	-7e-05	-5e-05	0.00021	2e-05	0	-5e-05	0
1216	-0.00014	-7e-05	-7e-05	-5e-05	0.00021	2e-05	0	-5e-05	0
1217	-0.00014	-7e-05	-7e-05	-5e-05	0.00021	2e-05	0	-5e-05	0
1218	-0.00014	-7e-05	-7e-05	-5e-05	0.00021	2e-05	0	-5e-05	0
1219	-0.00014	-7e-05	-7e-05	-5e-05	0.00021	2e-05	0	-5e-05	0
1220	-0.00014	-7e-05	-7e-05	-5e-05	0.00021	2e-05	0	-5e-05	0
1221	-0.00014	-7e-05	-7e-05	-5e-05	0.00021	2e-05	0	-5e-05	0
1222	-0.00014	-7e-05	-7e-05	-5e-05	0.00021	2e-05	0	-5e-05	0
1223	-0.00014	-7e-05	-7e-05	-5e-05	0.00021	2e-05	0	-5e-05	0
1224	-0.00014	-7e-05	-7e-05	-5e-05	0.00021	2e-05	0	-5e-05	0
1225	-0.00014	-7e-05	-7e-05	-5e-05	0.00021	2e-05	0	-5e-05	0
1226	-0.00014	-7e-05	-7e-05	-5e-05	0.00021	2e-05	0	-5e-05	0
1227	-0.00014	-7e-05	-7e-05	-5e-05	0.00021	2e-05	0	-5e-05	0
1228	-0.00014	-7e-05	-7e-05	-5e-05	0.00021	2e-05	0	-5e-05	0
1229	-0.00014	-7e-05	-7e-05	-5e-05	0.00021	2e-05	0	-5e-05	0
1230	-0.00014	-7e-05	-7e-05	-5e-05	0.00021	2e-05	0	-5e-05	0
1231	-0.00014	-7e-05	-7e-05	-5e-05	0.00021	2e-05	0	-5e-05	0
1232	-0.00014	-7e-05	-7e-05	-5e-05	0.00021	2e-05	0	-5e-05	0
1233	-0.00014	-7e-05	-7e-05	-5e-05	0.00021	2e-05	0	-5e-05	0
1234	-0.00014	-7e-05	-7e-05	-5e-05	0.00021	2e-05	0	-5e-05	0
1235	-0.00014	-7e-05	-7e-05	-5e-05	0.00021	2e-05	0	-5e-05	0
1236	-0.00014	-7e-05	-7e-05	-5e-05	0.00021	2e-05	0	-5e-05	0
1238	-0.00014	-7e-05	-7e-05	-5e-05	0.00021	2e-05	0	-5e-05	0
1239	-0.00014	-7e-05	-7e-05	-5e-05	0.00021	2e-05	0	-5e-05	0
1240	-0.00014	-7e-05	-7e-05	-5e-05	0.00021	2e-05	0	-5e-05	0
1241	3e-05	2e-05	0	-1e-05	-0.00032	-4e-05	-1e-05	0	0
1242	4e-05	-2e-05	0	3e-05	-8e-05	-1e-05	-2e-05	0	0
1243	4e-05	-2e-05	0	3e-05	-8e-05	-1e-05	-2e-05	0	0
1244	4e-05	-2e-05	0	3e-05	-8e-05	-1e-05	-2e-05	0	0
1245	4e-05	-2e-05	0	3e-05	-8e-05	-1e-05	-2e-05	0	0
1246	4e-05	-2e-05	0	3e-05	-8e-05	-1e-05	-2e-05	0	0
1247	4e-05	-2e-05	0	3e-05	-8e-05	-1e-05	-2e-05	0	0
1248	-4e-05	-4e-05	-5e-05	-0.00016	-0.00035	-3e-05	0	3e-05	0
1249	1e-05	-3e-05	-3e-05	-4e-05	-4e-05	-3e-05	-2e-05	-1e-05	0
1250	1e-05	-3e-05	-3e-05	-4e-05	-4e-05	-3e-05	-2e-05	-1e-05	0
1251	1e-05	-3e-05	-3e-05	-4e-05	-4e-05	-3e-05	-2e-05	-1e-05	0
1252	1e-05	-3e-05	-3e-05	-4e-05	-4e-05	-3e-05	-2e-05	-1e-05	0
1253	1e-05	-3e-05	-3e-05	-4e-05	-4e-05	-3e-05	-2e-05	-1e-05	0
1254	1e-05	-3e-05	-3e-05	-4e-05	-4e-05	-3e-05	-2e-05	-1e-05	0
1255	1e-05	-3e-05	-3e-05	-4e-05	-4e-05	-3e-05	-2e-05	-1e-05	0
1256	1e-05	-3e-05	-3e-05	-4e-05	-4e-05	-3e-05	-2e-05	-1e-05	0
1257	1e-05	-3e-05	-3e-05	-4e-05	-4e-05	-3e-05	-2e-05	-1e-05	0
1258	1e-05	-3e-05	-3e-05	-4e-05	-4e-05	-3e-05	-2e-05	-1e-05	0
1259	1e-05	-3e-05	-3e-05	-4e-05	-4e-05	-3e-05	-2e-05	-1e-05	0
1260	1e-05	-3e-05	-3e-05	-4e-05	-4e-05	-3e-05	-2e-05	-1e-05	0
1261	1e-05	-3e-05	-3e-05	-4e-05	-4e-05	-3e-05	-2e-05	-1e-05	0
1262	1e-05	-3e-05	-3e-05	-4e-05	-4e-05	-3e-05	-2e-05	-1e-05	0
1263	1e-05	-3e-05	-3e-05	-4e-05	-4e-05	-3e-05	-2e-05	-1e-05	0
1264	1e-05	-3e-05	-3e-05	-4e-05	-4e-05	-3e-05	-2e-05	-1e-05	0
1265	1e-05	-3e-05	-3e-05	-4e-05	-4e-05	-3e-05	-2e-05	-1e-05	0
1266	1e-05	-3e-05	-3e-05	-4e-05	-4e-05	-3e-05	-2e-05	-1e-05	0
1267	1e-05	-3e-05	-3e-05	-4e-05	-4e-05	-3e-05	-2e-05	-1e-05	0
1268	1e-05	-3e-05	-3e-05	-4e-05	-4e-05	-3e-05	-2e-05	-1e-05	0
1269	1e-05	-3e-05	-3e-05	-4e-05	-4e-05	-3e-05	-2e-05	-1e-05	0
1270	-4e-05	-1e-05	-4e-05	0	2e-05	-1e-05	-1e-05	-2e-05	0
1271	-1e-05	-1e-05	-0.0001	-9e-05	-1e-05	-3e-05	-2e-05	-2e-05	0
1272	-1e-05	-1e-05	-0.0001	-9e-05	-1e-05	-3e-05	-2e-05	-2e-05	0
1273	-1e-05	-1e-05	-0.0001	-9e-05	-1e-05	-3e-05	-2e-05	-2e-05	0
1274	-1e-05	-1e-05	-0.0001	-9e-05	-1e-05	-3e-05	-2e-05	-2e-05	0
1275	-1e-05	-1e-05	-0.0001	-9e-05	-1e-05	-3e-05	-2e-05	-2e-05	0
1276	-1e-05	-1e-05	-0.0001	-9e-05	-1e-05	-3e-05	-2e-05	-2e-05	0
1277	-1e-05	-1e-05	-0.0001	-9e-05	-1e-05	-3e-05	-2e-05	-2e-05	0
1278	-1e-05	-1e-05	-0.0001	-9e-05	-1e-05	-3e-05	-2e-05	-2e-05	0
1279	-1e-05	-1e-05	-0.0001	-9e-05	-1e-05	-3e-05	-2e-05	-2e-05	0
1280	-1e-05	-1e-05	-0.0001	-9e-05	-1e-05	-3e-05	-2e-05	-2e-05	0
1281	-1e-05	-1e-05	-0.0001	-9e-05	-1e-05	-3e-05	-2e-05	-2e-05	0
1282	-1e-05	-1e-05	-0.0001	-9e-05	-1e-05	-3e-05	-2e-05	-2e-05	0
1283	-1e-05	-1e-05	-0.0001	-9e-05	-1e-05	-3e-05	-2e-05	-2e-05	0
1284	-1e-05	-1e-05	-0.0001	-9e-05	-1e-05	-3e-05	-2e-05	-2e-05	0
1285	-1e-05	-1e-05	-0.0001	-9e-05	-1e-05	-3e-05	-2e-05	-2e-05	0
1286	-1e-05	-1e-05	-0.0001	-9e-05	-1e-05	-3e-05	-2e-05	-2e-05	0
1288	-1e-05	-1e-05	-0.0001	-9e-05	-1e-05	-3e-05	-2e-05	-2e-05	0
1289	-1e-05	-1e-05	-0.0001	-9e-05	-1e-05	-3e-05	-2e-05	-2e-05	0
1290	-1e-05	-1e-05	-0.0001	-9e-05	-1e-05	-3e-05	-2e-05	-2e-05	0
1291	-1e-05	-1e-05	-0.0001	-9e-05	-1e-05	-3e-05	-2e-05	-2e-05	0
1292	-1e-05	-1e-05	-0.0001	-9e-05	-1e-05	-3e-05	-2e-05	-2e-05	0
1293	-1e-05	-1e-05	-0.0001	-9e-05	-1e-05	-3e-05	-2e-05	-2e-05	0
1294	1e-05	0	1e-05	0	-3e-05	-2e-05	0	-1e-05	0
1295	1e-05	0	1e-05	0	-3e-05	-2e-05	0	-1e-05	0
1296	1e-05	0	1e-05	0	-3e-05	-2e-05	0	-1e-05	0
1297	1e-05	0	1e-05	0	-3e-05	-2e-05	0	-1e-05	0
1298	1e-05	0	1e-05	0	-3e-05	-2e-05	0	-1e-05	0
1299	1e-05	0	1e-05	0	-3e-05	-2e-05	0	-1e-05	0
1300	1e-05	0	1e-05	0	-3e-05	-2e-05	0	-1e-05	0
1301	1e-05	0	1e-05	0	-3e-05	-2e-05	0	-1e-05	0
1302	1e-05	0	1e-05	0	-3e-05	-2e-05	0	-1e-05	0
1303	1e-05	0	1e-05	0	-3e-05	-2e-05	0	-1e-05	0
1304	1e-05	0	1e-05	0	-3e-05	-2e-05	0	-1e-05	0
1305	1e-05	0	1e-05	0	-3e-05	-2e-05	0	-1e-05	0
1306	1e-05	0	1e-05	0	-3e-05	-2e-05	0	-1e-05	0
1307	1e-05	0	1e-05	0	-3e-05	-2e-05	0	-1e-05	0
1308	-6e-05	-1e-05	-3e-05	0	0.00015	0	-1e-05	-2e-05	0
1309	1e-05	1e-05	3e-05	4e-05	-0.00023	-3e-05	0	1e-05	0
1310	1e-05	1e-05	3e-05	4e-05	-0.00023	-3e-05	0	1e-05	0
1311	1e-05	1e-05	3e-05	4e-05	-0.00023	-3e-05	0	1e-05	0
1312	1e-05	1e-05	3e-05	4e-05	-0.00023	-3e-05	0	1e-05	0
1313	1e-05	1e-05	3e-05	4e-05	-0.00023	-3e-05	0	1e-05	0
1314	1e-05	1e-05	3e-05	4e-05	-0.00023	-3e-05	0	1e-05	0
1315	1e-05	1e-05	3e-05	4e-05	-0.00023	-3e-05	0	1e-05	0
1316	1e-05	1e-05	3e-05	4e-05	-0.00023	-3e-05	0	1e-05	0
1317	1e-05	1e-05	3e-05	4e-05	-0.00023	-3e-05	0	1e-05	0
1318	1e-05	1e-05	3e-05	4e-05	-0.00023	-3e-05	0	1e-05	0
1319	1e-05	1e-05	3e-05	4e-05	-0.00023	-3e-05	0	1e-05	0
1320	1e-05	1e-05	3e-05	4e-05	-0.00023	-3e-05	0	1e-05	0
1321	1e-05	1e-05	3e-05	4e-05	-0.00023	-3e-05	0	1e-05	0
1322	1e-05	1e-05	3e-05	4e-05	-0.00023	-3e-05	0	1e-05	0
1323	1e-05	1e-05	3e-05	4e-05	-0.00023	-3e-05	0	1e-05	0
1324	1e-05	1e-05	3e-05	4e-05	-0.00023	-3e-05	0	1e-05	0
1325	1e-05	1e-05	3e-05	4e-05	-0.00023	-3e-05	0	1e-05	0
1326	1e-05	1e-05	3e-05	4e-05	-0.00023	-3e-05	0	1e-05	0
1327	1e-05	1e-05	3e-05	4e-05	-0.00023	-3e-05	0	1e-05	0
1328	1e-05	1e-05	3e-05	4e-05	-0.00023	-3e-05	0	1e-05	0
1329	1e-05	1e-05	3e-05	4e-05	-0.00023	-3e-05	0	1e-05	0
1330	1e-05	1e-05	3e-05	4e-05	-0.00023	-3e-05	0	1e-05	0
1331	1e-05	1e-05	3e-05	4e-05	-0.00023	-3e-05	0	1e-05	0
1332	2e-05	-1e-05	-1e-05	0	-4e-05	-1e-05	0	1e-05	0
1333	3e-05	-4e-05	-4e-05	-5e-05	-1e-05	-1e-05	-1e-05	-1e-05	0
1334	3e-05	-4e-05	-4e-05	-5e-05	-1e-05	-1e-05	-1e-05	-1e-05	0
1335	3e-05	-4e-05	-4e-05	-5e-05	-1e-05	-1e-05	-1e-05	-1e-05	0
1336	3e-05	-4e-05	-4e-05	-5e-05	-1e-05	-1e-05	-1e-05	-1e-05	0
1338	3e-05	-4e-05	-4e-05	-5e-05	-1e-05	-1e-05	-1e-05	-1e-05	0
1339	3e-05	-4e-05	-4e-05	-5e-05	-1e-05	-1e-05	-1e-05	-1e-05	0
1340	3e-05	-4e-05	-4e-05	-5e-05	-1e-05	-1e-05	-1e-05	-1e-05	0
1341	3e-05	-4e-05	-4e-05	-5e-05	-1e-05	-1e-05	-1e-05	-1e-05	0
1342	3e-05	-4e-05	-4e-05	-5e-05	-1e-05	-1e-05	-1e-05	-1e-05	0
1343	3e-05	-4e-05	-4e-05	-5e-05	-1e-05	-1e-05	-1e-05	-1e-05	0
1344	3e-05	-4e-05	-4e-05	-5e-05	-1e-05	-1e-05	-1e-05	-1e-05	0
1345	3e-05	-4e-05	-4e-05	-5e-05	-1e-05	-1e-05	-1e-05	-1e-05	0
1346	3e-05	-4e-05	-4e-05	-5e-05	-1e-05	-1e-05	-1e-05	-1e-05	0
1347	3e-05	-4e-05	-4e-05	-5e-05	-1e-05	-1e-05	-1e-05	-1e-05	0
1348	3e-05	-4e-05	-4e-05	-5e-05	-1e-05	-1e-05	-1e-05	-1e-05	0
1349	3e-05	-4e-05	-4e-05	-5e-05	-1e-05	-1e-05	-1e-05	-1e-05	0
1350	3e-05	-4e-05	-4e-05	-5e-05	-1e-05	-1e-05	-1e-05	-1e-05	0
1351	3e-05	-4e-05	-4e-05	-5e-05	-1e-05	-1e-05	-1e-05	-1e-05	0
1352	3e-05	-4e-05	-4e-05	-5e-05	-1e-05	-1e-05	-1e-05	-1e-05	0
1353	3e-05	-4e-05	-4e-05	-5e-05	-1e-05	-1e-05	-1e-05	-1e-05	0
1354	0	0	1e-05	-2e-05	-2e-05	0	2e-05	1e-05	0
1355	0	0	1e-05	-2e-05	-2e-05	0	2e-05	1e-05	0
1356	0	0	1e-05	-2e-05	-2e-05	0	2e-05	1e-05	0
1357	0	0	1e-05	-2e-05	-2e-05	0	2e-05	1e-05	0
1358	0	0	1e-05	-2e-05	-2e-05	0	2e-05	1e-05	0
1359	0	0	1e-05	-2e-05	-2e-05	0	2e-05	1e-05	0
1360	0	0	1e-05	-2e-05	-2e-05	0	2e-05	1e-05	0
1361	0	0	1e-05	-2e-05	-2e-05	0	2e-05	1e-05	0
1362	0	0	1e-05	-2e-05	-2e-05	0	2e-05	1e-05	0
1363	0	0	1e-05	-2e-05	-2e-05	0	2e-05	1e-05	0
1364	0	0	1e-05	-2e-05	-2e-05	0	2e-05	1e-05	0
1365	0	0	1e-05	-2e-05	-2e-05	0	2e-05	1e-05	0
1366	0	0	1e-05	-2e-05	-2e-05	0	2e-05	1e-05	0
1367	0	0	1e-05	-2e-05	-2e-05	0	2e-05	1e-05	0
1368	-4e-05	-3e-05	-4e-05	5e-05	0.00047	0	0	-1e-05	0
1369	2e-05	-3e-05	0	1e-05	5e-05	3e-05	1e-05	-2e-05	0
1370	2e-05	-3e-05	0	1e-05	5e-05	3e-05	1e-05	-2e-05	0
1371	2e-05	-3e-05	0	1e-05	5e-05	3e-05	1e-05	-2e-05	0
1372	2e-05	-3e-05	0	1e-05	5e-05	3e-05	1e-05	-2e-05	0
1373	2e-05	-3e-05	0	1e-05	5e-05	3e-05	1e-05	-2e-05	0
1374	2e-05	-3e-05	0	1e-05	5e-05	3e-05	1e-05	-2e-05	0
1375	-1e-05	1e-05	1e-05	-2e-05	-0.00018	0	-2e-05	-1e-05	0
1376	-2e-05	-1e-05	3e-05	8e-05	6e-05	-1e-05	-1e-05	-2e-05	0
1377	-2e-05	-1e-05	3e-05	8e-05	6e-05	-1e-05	-1e-05	-2e-05	0
1378	-2e-05	-1e-05	3e-05	8e-05	6e-05	-1e-05	-1e-05	-2e-05	0
1379	-2e-05	-1e-05	3e-05	8e-05	6e-05	-1e-05	-1e-05	-2e-05	0
1380	-2e-05	-1e-05	3e-05	8e-05	6e-05	-1e-05	-1e-05	-2e-05	0
1381	-2e-05	-1e-05	3e-05	8e-05	6e-05	-1e-05	-1e-05	-2e-05	0
1382	-2e-05	-1e-05	3e-05	8e-05	6e-05	-1e-05	-1e-05	-2e-05	0
1383	-2e-05	-1e-05	3e-05	8e-05	6e-05	-1e-05	-1e-05	-2e-05	0
1384	-2e-05	-1e-05	3e-05	8e-05	6e-05	-1e-05	-1e-05	-2e-05	0
1385	-2e-05	-1e-05	3e-05	8e-05	6e-05	-1e-05	-1e-05	-2e-05	0
1386	-2e-05	-1e-05	3e-05	8e-05	6e-05	-1e-05	-1e-05	-2e-05	0
1388	-2e-05	-1e-05	3e-05	8e-05	6e-05	-1e-05	-1e-05	-2e-05	0
1389	-2e-05	-1e-05	3e-05	8e-05	6e-05	-1e-05	-1e-05	-2e-05	0
1390	-2e-05	-1e-05	3e-05	8e-05	6e-05	-1e-05	-1e-05	-2e-05	0
1391	-2e-05	3e-05	-2e-05	-9e-05	0.00044	0	0	-2e-05	0
1392	-2e-05	3e-05	0	-5e-05	-6e-05	1e-05	0	3e-05	0
1393	-2e-05	3e-05	0	-5e-05	-6e-05	1e-05	0	3e-05	0
1394	-2e-05	3e-05	0	-5e-05	-6e-05	1e-05	0	3e-05	0
1395	-2e-05	3e-05	0	-5e-05	-6e-05	1e-05	0	3e-05	0
1396	-2e-05	3e-05	0	-5e-05	-6e-05	1e-05	0	3e-05	0
1397	-2e-05	3e-05	0	-5e-05	-6e-05	1e-05	0	3e-05	0
1398	-2e-05	3e-05	0	-5e-05	-6e-05	1e-05	0	3e-05	0
1399	-2e-05	3e-05	0	-5e-05	-6e-05	1e-05	0	3e-05	0
1400	-2e-05	3e-05	0	-5e-05	-6e-05	1e-05	0	3e-05	0
1401	-2e-05	3e-05	0	-5e-05	-6e-05	1e-05	0	3e-05	0
1402	-2e-05	3e-05	0	-5e-05	-6e-05	1e-05	0	3e-05	0
1403	-2e-05	3e-05	0	-5e-05	-6e-05	1e-05	0	3e-05	0
1404	-2e-05	3e-05	0	-5e-05	-6e-05	1e-05	0	3e-05	0
1405	-2e-05	3e-05	0	-5e-05	-6e-05	1e-05	0	3e-05	0
1406	-2e-05	3e-05	0	-5e-05	-6e-05	1e-05	0	3e-05	0
1407	-2e-05	3e-05	0	-5e-05	-6e-05	1e-05	0	3e-05	0
1408	-2e-05	3e-05	0	-5e-05	-6e-05	1e-05	0	3e-05	0
1409	-2e-05	3e-05	0	-5e-05	-6e-05	1e-05	0	3e-05	0
1410	-2e-05	3e-05	0	-5e-05	-6e-05	1e-05	0	3e-05	0
1411	-2e-05	3e-05	0	-5e-05	-6e-05	1e-05	0	3e-05	0
1412	-2e-05	3e-05	0	-5e-05	-6e-05	1e-05	0	3e-05	0
1413	-2e-05	3e-05	0	-5e-05	-6e-05	1e-05	0	3e-05	0
1414	0	-3e-05	0	-6e-05	0.00019	-1e-05	-1e-05	-1e-05	0
1415	0	-3e-05	0	-6e-05	0.00019	-1e-05	-1e-05	-1e-05	0
1416	0	-3e-05	0	-6e-05	0.00019	-1e-05	-1e-05	-1e-05	0
1417	0	-3e-05	0	-6e-05	0.00019	-1e-05	-1e-05	-1e-05	0
1418	0	-3e-05	0	-6e-05	0.00019	-1e-05	-1e-05	-1e-05	0
1419	0	-3e-05	0	-6e-05	0.00019	-1e-05	-1e-05	-1e-05	0
1420	0	-3e-05	0	-6e-05	0.00019	-1e-05	-1e-05	-1e-05	0
1421	0	-3e-05	0	-6e-05	0.00019	-1e-05	-1e-05	-1e-05	0
1422	0	-3e-05	0	-6e-05	0.00019	-1e-05	-1e-05	-1e-05	0
1423	0	-3e-05	0	-6e-05	0.00019	-1e-05	-1e-05	-1e-05	0
1424	0	-3e-05	0	-6e-05	0.00019	-1e-05	-1e-05	-1e-05	0
1425	0	-3e-05	0	-6e-05	0.00019	-1e-05	-1e-05	-1e-05	0
1426	0	-3e-05	0	-6e-05	0.00019	-1e-05	-1e-05	-1e-05	0
1427	0	-3e-05	0	-6e-05	0.00019	-1e-05	-1e-05	-1e-05	0
1428	-1e-05	1e-05	0	-4e-05	-0.00011	-3e-05	-2e-05	-2e-05	0
1429	-2e-05	-7e-05	-6e-05	4e-05	-0.00019	-3e-05	0	-1e-05	0
1430	-2e-05	-7e-05	-6e-05	4e-05	-0.00019	-3e-05	0	-1e-05	0
1431	-2e-05	-7e-05	-6e-05	4e-05	-0.00019	-3e-05	0	-1e-05	0
1432	-2e-05	-7e-05	-6e-05	4e-05	-0.00019	-3e-05	0	-1e-05	0
1433	-2e-05	-7e-05	-6e-05	4e-05	-0.00019	-3e-05	0	-1e-05	0
1434	-2e-05	-7e-05	-6e-05	4e-05	-0.00019	-3e-05	0	-1e-05	0
1435	-2e-05	-7e-05	-6e-05	4e-05	-0.00019	-3e-05	0	-1e-05	0
1436	-2e-05	-7e-05	-6e-05	4e-05	-0.00019	-3e-05	0	-1e-05	0
1438	-2e-05	-7e-05	-6e-05	4e-05	-0.00019	-3e-05	0	-1e-05	0
1439	-2e-05	-7e-05	-6e-05	4e-05	-0.00019	-3e-05	0	-1e-05	0
1440	-2e-05	-7e-05	-6e-05	4e-05	-0.00019	-3e-05	0	-1e-05	0
1441	-2e-05	-7e-05	-6e-05	4e-05	-0.00019	-3e-05	0	-1e-05	0
1442	-2e-05	-7e-05	-6e-05	4e-05	-0.00019	-3e-05	0	-1e-05	0
1443	-2e-05	-7e-05	-6e-05	4e-05	-0.00019	-3e-05	0	-1e-05	0
1444	-2e-05	-7e-05	-6e-05	4e-05	-0.00019	-3e-05	0	-1e-05	0
1445	-2e-05	-7e-05	-6e-05	4e-05	-0.00019	-3e-05	0	-1e-05	0
1446	-2e-05	-7e-05	-6e-05	4e-05	-0.00019	-3e-05	0	-1e-05	0
1447	-2e-05	-7e-05	-6e-05	4e-05	-0.00019	-3e-05	0	-1e-05	0
1448	-2e-05	-7e-05	-6e-05	4e-05	-0.00019	-3e-05	0	-1e-05	0
1449	-2e-05	-7e-05	-6e-05	4e-05	-0.00019	-3e-05	0	-1e-05	0
1450	-2e-05	-7e-05	-6e-05	4e-05	-0.00019	-3e-05	0	-1e-05	0
1451	-2e-05	-7e-05	-6e-05	4e-05	-0.00019	-3e-05	0	-1e-05	0
1452	-2e-05	-7e-05	-6e-05	4e-05	-0.00019	-3e-05	0	-1e-05	0
1453	-2e-05	-7e-05	-6e-05	4e-05	-0.00019	-3e-05	0	-1e-05	0
1454	-2e-05	-7e-05	-6e-05	4e-05	-0.00019	-3e-05	0	-1e-05	0
1455	-2e-05	-7e-05	-6e-05	4e-05	-0.00019	-3e-05	0	-1e-05	0
1456	-2e-05	-7e-05	-6e-05	4e-05	-0.00019	-3e-05	0	-1e-05	0
1457	-2e-05	-7e-05	-6e-05	4e-05	-0.00019	-3e-05	0	-1e-05	0
1458	-2e-05	-7e-05	-6e-05	4e-05	-0.00019	-3e-05	0	-1e-05	0
1459	0	-1e-05	-1e-05	-9e-05	-2e-05	0	0	-1e-05	0
1460	0	-1e-05	-1e-05	-9e-05	-2e-05	0	0	-1e-05	0
1461	0	-1e-05	-1e-05	-9e-05	-2e-05	0	0	-1e-05	0
1462	0	-1e-05	-1e-05	-9e-05	-2e-05	0	0	-1e-05	0
1463	0	-1e-05	-1e-05	-9e-05	-2e-05	0	0	-1e-05	0
1464	0	-1e-05	-1e-05	-9e-05	-2e-05	0	0	-1e-05	0
1465	0	-1e-05	-1e-05	-9e-05	-2e-05	0	0	-1e-05	0
1466	0	-1e-05	-1e-05	-9e-05	-2e-05	0	0	-1e-05	0
1467	0	-1e-05	-1e-05	-9e-05	-2e-05	0	0	-1e-05	0
1468	0	-1e-05	-1e-05	-9e-05	-2e-05	0	0	-1e-05	0
1469	0	-1e-05	-1e-05	-9e-05	-2e-05	0	0	-1e-05	0
1470	0	-1e-05	-1e-05	-9e-05	-2e-05	0	0	-1e-05	0
1471	0	-1e-05	-1e-05	-9e-05	-2e-05	0	0	-1e-05	0
1472	0	-1e-05	-1e-05	-9e-05	-2e-05	0	0	-1e-05	0
1473	0	-1e-05	-1e-05	-9e-05	-2e-05	0	0	-1e-05	0
1474	3e-05	-2e-05	0	-4e-05	-0.00018	-2e-05	0	0	0
1475	4e-05	1e-05	2e-05	-4e-05	8e-05	0	-2e-05	0	0
1476	4e-05	1e-05	2e-05	-4e-05	8e-05	0	-2e-05	0	0
1477	4e-05	1e-05	2e-05	-4e-05	8e-05	0	-2e-05	0	0
1478	4e-05	1e-05	2e-05	-4e-05	8e-05	0	-2e-05	0	0
1479	4e-05	1e-05	2e-05	-4e-05	8e-05	0	-2e-05	0	0
1480	4e-05	1e-05	2e-05	-4e-05	8e-05	0	-2e-05	0	0
1481	4e-05	1e-05	2e-05	-4e-05	8e-05	0	-2e-05	0	0
1482	4e-05	1e-05	2e-05	-4e-05	8e-05	0	-2e-05	0	0
1483	4e-05	1e-05	2e-05	-4e-05	8e-05	0	-2e-05	0	0
1484	4e-05	1e-05	2e-05	-4e-05	8e-05	0	-2e-05	0	0
1485	4e-05	1e-05	2e-05	-4e-05	8e-05	0	-2e-05	0	0
1486	4e-05	1e-05	2e-05	-4e-05	8e-05	0	-2e-05	0	0
1489	1e-05	-1e-05	-2e-05	4e-05	-5e-05	-2e-05	-2e-05	-1e-05	0
1490	5e-05	-4e-05	-2e-05	5e-05	0.00017	0	-2e-05	-1e-05	0
1491	5e-05	-4e-05	-2e-05	5e-05	0.00017	0	-2e-05	-1e-05	0
1492	5e-05	-4e-05	-2e-05	5e-05	0.00017	0	-2e-05	-1e-05	0
1493	5e-05	-4e-05	-2e-05	5e-05	0.00017	0	-2e-05	-1e-05	0
1494	5e-05	-4e-05	-2e-05	5e-05	0.00017	0	-2e-05	-1e-05	0
1495	5e-05	-4e-05	-2e-05	5e-05	0.00017	0	-2e-05	-1e-05	0
1496	5e-05	-4e-05	-2e-05	5e-05	0.00017	0	-2e-05	-1e-05	0
1497	5e-05	-4e-05	-2e-05	5e-05	0.00017	0	-2e-05	-1e-05	0
1498	5e-05	-4e-05	-2e-05	5e-05	0.00017	0	-2e-05	-1e-05	0
1499	5e-05	-4e-05	-2e-05	5e-05	0.00017	0	-2e-05	-1e-05	0
1500	5e-05	-4e-05	-2e-05	5e-05	0.00017	0	-2e-05	-1e-05	0
1501	5e-05	-4e-05	-2e-05	5e-05	0.00017	0	-2e-05	-1e-05	0
1502	5e-05	-4e-05	-2e-05	5e-05	0.00017	0	-2e-05	-1e-05	0
1503	5e-05	-4e-05	-2e-05	5e-05	0.00017	0	-2e-05	-1e-05	0
1504	5e-05	-4e-05	-2e-05	5e-05	0.00017	0	-2e-05	-1e-05	0
1505	5e-05	-4e-05	-2e-05	5e-05	0.00017	0	-2e-05	-1e-05	0
1506	5e-05	-4e-05	-2e-05	5e-05	0.00017	0	-2e-05	-1e-05	0
1507	5e-05	-4e-05	-2e-05	5e-05	0.00017	0	-2e-05	-1e-05	0
1508	5e-05	-4e-05	-2e-05	5e-05	0.00017	0	-2e-05	-1e-05	0
1509	5e-05	-4e-05	-2e-05	5e-05	0.00017	0	-2e-05	-1e-05	0
1510	5e-05	-4e-05	-2e-05	5e-05	0.00017	0	-2e-05	-1e-05	0
1511	5e-05	-4e-05	-2e-05	5e-05	0.00017	0	-2e-05	-1e-05	0
1512	5e-05	-4e-05	-2e-05	5e-05	0.00017	0	-2e-05	-1e-05	0
1513	5e-05	-4e-05	-2e-05	5e-05	0.00017	0	-2e-05	-1e-05	0
1514	5e-05	-4e-05	-2e-05	5e-05	0.00017	0	-2e-05	-1e-05	0
1515	5e-05	-4e-05	-2e-05	5e-05	0.00017	0	-2e-05	-1e-05	0
1516	5e-05	-4e-05	-2e-05	5e-05	0.00017	0	-2e-05	-1e-05	0
1517	5e-05	-4e-05	-2e-05	5e-05	0.00017	0	-2e-05	-1e-05	0
1518	5e-05	-4e-05	-2e-05	5e-05	0.00017	0	-2e-05	-1e-05	0
1519	5e-05	-4e-05	-2e-05	5e-05	0.00017	0	-2e-05	-1e-05	0
1520	-3e-05	1e-05	0	-4e-05	-8e-05	-3e-05	-1e-05	0	0
1521	2e-05	-1e-05	3e-05	3e-05	-0.00018	-3e-05	-1e-05	-1e-05	0
1522	2e-05	-1e-05	3e-05	3e-05	-0.00018	-3e-05	-1e-05	-1e-05	0
1523	2e-05	-1e-05	3e-05	3e-05	-0.00018	-3e-05	-1e-05	-1e-05	0
1524	2e-05	-1e-05	3e-05	3e-05	-0.00018	-3e-05	-1e-05	-1e-05	0
1525	2e-05	-1e-05	3e-05	3e-05	-0.00018	-3e-05	-1e-05	-1e-05	0
1526	2e-05	-1e-05	3e-05	3e-05	-0.00018	-3e-05	-1e-05	-1e-05	0
1527	2e-05	-1e-05	3e-05	3e-05	-0.00018	-3e-05	-1e-05	-1e-05	0
1528	2e-05	-1e-05	3e-05	3e-05	-0.00018	-3e-05	-1e-05	-1e-05	0
1529	2e-05	-1e-05	3e-05	3e-05	-0.00018	-3e-05	-1e-05	-1e-05	0
1530	2e-05	-1e-05	3e-05	3e-05	-0.00018	-3e-05	-1e-05	-1e-05	0
1531	2e-05	-1e-05	3e-05	3e-05	-0.00018	-3e-05	-1e-05	-1e-05	0
1532	2e-05	-1e-05	3e-05	3e-05	-0.00018	-3e-05	-1e-05	-1e-05	0
1533	2e-05	-1e-05	3e-05	3e-05	-0.00018	-3e-05	-1e-05	-1e-05	0
1534	2e-05	-1e-05	3e-05	3e-05	-0.00018	-3e-05	-1e-05	-1e-05	0
1535	2e-05	-1e-05	3e-05	3e-05	-0.00018	-3e-05	-1e-05	-1e-05	0
1536	2e-05	-1e-05	3e-05	3e-05	-0.00018	-3e-05	-1e-05	-1e-05	0
1539	2e-05	-1e-05	3e-05	3e-05	-0.00018	-3e-05	-1e-05	-1e-05	0
1540	2e-05	-1e-05	3e-05	3e-05	-0.00018	-3e-05	-1e-05	-1e-05	0
1541	2e-05	-1e-05	3e-05	3e-05	-0.00018	-3e-05	-1e-05	-1e-05	0
1542	-7e-05	-1e-05	-2e-05	-0.00011	-0.00026	-2e-05	-2e-05	-1e-05	0
1543	-7e-05	-1e-05	-2e-05	-0.00011	-0.00026	-2e-05	-2e-05	-1e-05	0
1544	-7e-05	-1e-05	-2e-05	-0.00011	-0.00026	-2e-05	-2e-05	-1e-05	0
1545	-7e-05	-1e-05	-2e-05	-0.00011	-0.00026	-2e-05	-2e-05	-1e-05	0
1546	-7e-05	-1e-05	-2e-05	-0.00011	-0.00026	-2e-05	-2e-05	-1e-05	0
1547	-7e-05	-1e-05	-2e-05	-0.00011	-0.00026	-2e-05	-2e-05	-1e-05	0
1548	3e-05	-1e-05	-2e-05	-9e-05	-0.00014	1e-05	-1e-05	-2e-05	0
1549	-2e-05	-2e-05	3e-05	8e-05	8e-05	0	0	-1e-05	0
1550	-2e-05	-2e-05	3e-05	8e-05	8e-05	0	0	-1e-05	0
1551	-2e-05	-2e-05	3e-05	8e-05	8e-05	0	0	-1e-05	0
1552	-2e-05	-2e-05	3e-05	8e-05	8e-05	0	0	-1e-05	0
1553	-2e-05	-2e-05	3e-05	8e-05	8e-05	0	0	-1e-05	0
1554	-2e-05	-2e-05	3e-05	8e-05	8e-05	0	0	-1e-05	0
1555	-2e-05	-2e-05	3e-05	8e-05	8e-05	0	0	-1e-05	0
1556	-2e-05	-2e-05	3e-05	8e-05	8e-05	0	0	-1e-05	0
1557	-2e-05	-2e-05	3e-05	8e-05	8e-05	0	0	-1e-05	0
1558	-2e-05	-2e-05	3e-05	8e-05	8e-05	0	0	-1e-05	0
1559	-2e-05	-2e-05	3e-05	8e-05	8e-05	0	0	-1e-05	0
1560	-2e-05	-2e-05	3e-05	8e-05	8e-05	0	0	-1e-05	0
1561	-2e-05	-2e-05	3e-05	8e-05	8e-05	0	0	-1e-05	0
1562	-2e-05	-2e-05	3e-05	8e-05	8e-05	0	0	-1e-05	0
1563	-2e-05	-2e-05	3e-05	8e-05	8e-05	0	0	-1e-05	0
1564	-2e-05	-2e-05	3e-05	8e-05	8e-05	0	0	-1e-05	0
1565	-2e-05	-2e-05	3e-05	8e-05	8e-05	0	0	-1e-05	0
1566	-2e-05	-2e-05	3e-05	8e-05	8e-05	0	0	-1e-05	0
1567	-2e-05	-2e-05	3e-05	8e-05	8e-05	0	0	-1e-05	0
1568	-2e-05	-2e-05	3e-05	8e-05	8e-05	0	0	-1e-05	0
1569	-2e-05	-2e-05	3e-05	8e-05	8e-05	0	0	-1e-05	0
1570	-2e-05	-2e-05	3e-05	8e-05	8e-05	0	0	-1e-05	0
1571	3e-05	-1e-05	-6e-05	-0.00013	-0.00014	-3e-05	-2e-05	-1e-05	0
1572	-6e-05	4e-05	-3e-05	8e-05	9e-05	-3e-05	-1e-05	1e-05	0
1573	-6e-05	4e-05	-3e-05	8e-05	9e-05	-3e-05	-1e-05	1e-05	0
1574	-6e-05	4e-05	-3e-05	8e-05	9e-05	-3e-05	-1e-05	1e-05	0
1575	-6e-05	4e-05	-3e-05	8e-05	9e-05	-3e-05	-1e-05	1e-05	0
1576	-6e-05	4e-05	-3e-05	8e-05	9e-05	-3e-05	-1e-05	1e-05	0
1577	-6e-05	4e-05	-3e-05	8e-05	9e-05	-3e-05	-1e-05	1e-05	0
1578	-6e-05	4e-05	-3e-05	8e-05	9e-05	-3e-05	-1e-05	1e-05	0
1579	-6e-05	4e-05	-3e-05	8e-05	9e-05	-3e-05	-1e-05	1e-05	0
1580	-6e-05	4e-05	-3e-05	8e-05	9e-05	-3e-05	-1e-05	1e-05	0
1581	-6e-05	4e-05	-3e-05	8e-05	9e-05	-3e-05	-1e-05	1e-05	0
1582	-6e-05	4e-05	-3e-05	8e-05	9e-05	-3e-05	-1e-05	1e-05	0
1583	-6e-05	4e-05	-3e-05	8e-05	9e-05	-3e-05	-1e-05	1e-05	0
1586	-6e-05	4e-05	-3e-05	8e-05	9e-05	-3e-05	-1e-05	1e-05	0
1587	-6e-05	4e-05	-3e-05	8e-05	9e-05	-3e-05	-1e-05	1e-05	0
1588	-6e-05	4e-05	-3e-05	8e-05	9e-05	-3e-05	-1e-05	1e-05	0
1589	-6e-05	4e-05	-3e-05	8e-05	9e-05	-3e-05	-1e-05	1e-05	0
1590	-6e-05	4e-05	-3e-05	8e-05	9e-05	-3e-05	-1e-05	1e-05	0
1591	-6e-05	4e-05	-3e-05	8e-05	9e-05	-3e-05	-1e-05	1e-05	0
1592	-6e-05	4e-05	-3e-05	8e-05	9e-05	-3e-05	-1e-05	1e-05	0
1593	-6e-05	4e-05	-3e-05	8e-05	9e-05	-3e-05	-1e-05	1e-05	0
1594	-6e-05	4e-05	-3e-05	8e-05	9e-05	-3e-05	-1e-05	1e-05	0
1595	-6e-05	4e-05	-3e-05	8e-05	9e-05	-3e-05	-1e-05	1e-05	0
1596	-6e-05	4e-05	-3e-05	8e-05	9e-05	-3e-05	-1e-05	1e-05	0
1597	-6e-05	4e-05	-3e-05	8e-05	9e-05	-3e-05	-1e-05	1e-05	0
1598	-6e-05	4e-05	-3e-05	8e-05	9e-05	-3e-05	-1e-05	1e-05	0
1599	-6e-05	4e-05	-3e-05	8e-05	9e-05	-3e-05	-1e-05	1e-05	0
1600	-6e-05	4e-05	-3e-05	8e-05	9e-05	-3e-05	-1e-05	1e-05	0
1601	-3e-05	0	1e-05	-9e-05	-6e-05	2e-05	0	1e-05	0
1602	-7e-05	0	1e-05	-2e-05	1e-05	-1e-05	-3e-05	-3e-05	0
1603	-7e-05	0	1e-05	-2e-05	1e-05	-1e-05	-3e-05	-3e-05	0
1604	-7e-05	0	1e-05	-2e-05	1e-05	-1e-05	-3e-05	-3e-05	0
1605	-7e-05	0	1e-05	-2e-05	1e-05	-1e-05	-3e-05	-3e-05	0
1606	-7e-05	0	1e-05	-2e-05	1e-05	-1e-05	-3e-05	-3e-05	0
1607	-7e-05	0	1e-05	-2e-05	1e-05	-1e-05	-3e-05	-3e-05	0
1608	-7e-05	0	1e-05	-2e-05	1e-05	-1e-05	-3e-05	-3e-05	0
1609	-7e-05	0	1e-05	-2e-05	1e-05	-1e-05	-3e-05	-3e-05	0
1610	-1e-05	-3e-05	-2e-05	-1e-05	-0.00016	0	2e-05	1e-05	0
1611	4e-05	3e-05	-2e-05	-2e-05	5e-05	0	-1e-05	1e-05	0
1612	4e-05	3e-05	-2e-05	-2e-05	5e-05	0	-1e-05	1e-05	0
1613	4e-05	3e-05	-2e-05	-2e-05	5e-05	0	-1e-05	1e-05	0
1614	4e-05	3e-05	-2e-05	-2e-05	5e-05	0	-1e-05	1e-05	0
1615	4e-05	3e-05	-2e-05	-2e-05	5e-05	0	-1e-05	1e-05	0
1616	4e-05	3e-05	-2e-05	-2e-05	5e-05	0	-1e-05	1e-05	0
1617	4e-05	3e-05	-2e-05	-2e-05	5e-05	0	-1e-05	1e-05	0
1618	4e-05	3e-05	-2e-05	-2e-05	5e-05	0	-1e-05	1e-05	0
1619	4e-05	3e-05	-2e-05	-2e-05	5e-05	0	-1e-05	1e-05	0
1620	4e-05	3e-05	-2e-05	-2e-05	5e-05	0	-1e-05	1e-05	0
1621	4e-05	3e-05	-2e-05	-2e-05	5e-05	0	-1e-05	1e-05	0
1622	4e-05	3e-05	-2e-05	-2e-05	5e-05	0	-1e-05	1e-05	0
1623	4e-05	3e-05	-2e-05	-2e-05	5e-05	0	-1e-05	1e-05	0
1624	4e-05	3e-05	-2e-05	-2e-05	5e-05	0	-1e-05	1e-05	0
1625	4e-05	3e-05	-2e-05	-2e-05	5e-05	0	-1e-05	1e-05	0
1626	4e-05	3e-05	-2e-05	-2e-05	5e-05	0	-1e-05	1e-05	0
1627	4e-05	3e-05	-2e-05	-2e-05	5e-05	0	-1e-05	1e-05	0
1628	4e-05	3e-05	-2e-05	-2e-05	5e-05	0	-1e-05	1e-05	0
1629	4e-05	3e-05	-2e-05	-2e-05	5e-05	0	-1e-05	1e-05	0
1630	4e-05	3e-05	-2e-05	-2e-05	5e-05	0	-1e-05	1e-05	0
1631	6e-05	-3e-05	-5e-05	-0.00011	-0.0002	-1e-05	-1e-05	-1e-05	0
1632	-1e-05	-1e-05	0	1e-05	0.00041	1e-05	-1e-05	-1e-05	0
1633	-1e-05	-1e-05	0	1e-05	0.00041	1e-05	-1e-05	-1e-05	0
1634	-1e-05	-1e-05	0	1e-05	0.00041	1e-05	-1e-05	-1e-05	0
1635	-1e-05	-1e-05	0	1e-05	0.00041	1e-05	-1e-05	-1e-05	0
1636	-1e-05	-1e-05	0	1e-05	0.00041	1e-05	-1e-05	-1e-05	0
1638	-1e-05	-1e-05	0	1e-05	0.00041	1e-05	-1e-05	-1e-05	0
1639	-1e-05	-1e-05	0	1e-05	0.00041	1e-05	-1e-05	-1e-05	0
1640	-1e-05	-1e-05	0	1e-05	0.00041	1e-05	-1e-05	-1e-05	0
1641	-1e-05	-1e-05	0	1e-05	0.00041	1e-05	-1e-05	-1e-05	0
1642	-1e-05	-1e-05	0	1e-05	0.00041	1e-05	-1e-05	-1e-05	0
1643	-1e-05	-1e-05	0	1e-05	0.00041	1e-05	-1e-05	-1e-05	0
1644	-1e-05	-1e-05	0	1e-05	0.00041	1e-05	-1e-05	-1e-05	0
1645	-1e-05	-1e-05	0	1e-05	0.00041	1e-05	-1e-05	-1e-05	0
1646	-1e-05	-1e-05	0	1e-05	0.00041	1e-05	-1e-05	-1e-05	0
1647	-1e-05	-1e-05	0	1e-05	0.00041	1e-05	-1e-05	-1e-05	0
1648	-1e-05	-1e-05	0	1e-05	0.00041	1e-05	-1e-05	-1e-05	0
1649	-1e-05	-1e-05	0	1e-05	0.00041	1e-05	-1e-05	-1e-05	0
1650	-1e-05	-1e-05	0	1e-05	0.00041	1e-05	-1e-05	-1e-05	0
1651	-1e-05	-1e-05	0	1e-05	0.00041	1e-05	-1e-05	-1e-05	0
1652	-1e-05	-1e-05	0	1e-05	0.00041	1e-05	-1e-05	-1e-05	0
1653	-1e-05	-1e-05	0	1e-05	0.00041	1e-05	-1e-05	-1e-05	0
1654	3e-05	0	5e-05	0.00022	0.00039	4e-05	2e-05	0	0
1655	3e-05	0	5e-05	0.00022	0.00039	4e-05	2e-05	0	0
1656	3e-05	0	5e-05	0.00022	0.00039	4e-05	2e-05	0	0
1657	3e-05	0	5e-05	0.00022	0.00039	4e-05	2e-05	0	0
1658	3e-05	0	5e-05	0.00022	0.00039	4e-05	2e-05	0	0
1659	3e-05	0	5e-05	0.00022	0.00039	4e-05	2e-05	0	0
1660	3e-05	0	5e-05	0.00022	0.00039	4e-05	2e-05	0	0
1661	3e-05	0	5e-05	0.00022	0.00039	4e-05	2e-05	0	0
1662	3e-05	0	5e-05	0.00022	0.00039	4e-05	2e-05	0	0
1663	3e-05	0	5e-05	0.00022	0.00039	4e-05	2e-05	0	0
1664	3e-05	0	5e-05	0.00022	0.00039	4e-05	2e-05	0	0
1665	3e-05	0	5e-05	0.00022	0.00039	4e-05	2e-05	0	0
1666	3e-05	0	5e-05	0.00022	0.00039	4e-05	2e-05	0	0
1667	3e-05	0	5e-05	0.00022	0.00039	4e-05	2e-05	0	0
1668	5e-05	1e-05	2e-05	0.00015	0.00016	2e-05	-1e-05	-1e-05	0
1669	-4e-05	-6e-05	-4e-05	-0.00023	-0.00018	-3e-05	-3e-05	-3e-05	0
1670	-4e-05	-6e-05	-4e-05	-0.00023	-0.00018	-3e-05	-3e-05	-3e-05	0
1671	-4e-05	-6e-05	-4e-05	-0.00023	-0.00018	-3e-05	-3e-05	-3e-05	0
1672	-4e-05	-6e-05	-4e-05	-0.00023	-0.00018	-3e-05	-3e-05	-3e-05	0
1673	-4e-05	-6e-05	-4e-05	-0.00023	-0.00018	-3e-05	-3e-05	-3e-05	0
1674	-4e-05	-6e-05	-4e-05	-0.00023	-0.00018	-3e-05	-3e-05	-3e-05	0
1675	-4e-05	-6e-05	-4e-05	-0.00023	-0.00018	-3e-05	-3e-05	-3e-05	0
1676	-4e-05	-6e-05	-4e-05	-0.00023	-0.00018	-3e-05	-3e-05	-3e-05	0
1677	-4e-05	-6e-05	-4e-05	-0.00023	-0.00018	-3e-05	-3e-05	-3e-05	0
1678	-4e-05	-6e-05	-4e-05	-0.00023	-0.00018	-3e-05	-3e-05	-3e-05	0
1679	-4e-05	-6e-05	-4e-05	-0.00023	-0.00018	-3e-05	-3e-05	-3e-05	0
1680	-4e-05	-6e-05	-4e-05	-0.00023	-0.00018	-3e-05	-3e-05	-3e-05	0
1681	-4e-05	-6e-05	-4e-05	-0.00023	-0.00018	-3e-05	-3e-05	-3e-05	0
1682	-4e-05	-6e-05	-4e-05	-0.00023	-0.00018	-3e-05	-3e-05	-3e-05	0
1683	-4e-05	-6e-05	-4e-05	-0.00023	-0.00018	-3e-05	-3e-05	-3e-05	0
1684	-4e-05	-6e-05	-4e-05	-0.00023	-0.00018	-3e-05	-3e-05	-3e-05	0
1685	-4e-05	-6e-05	-4e-05	-0.00023	-0.00018	-3e-05	-3e-05	-3e-05	0
1686	-4e-05	-6e-05	-4e-05	-0.00023	-0.00018	-3e-05	-3e-05	-3e-05	0
1688	-4e-05	-6e-05	-4e-05	-0.00023	-0.00018	-3e-05	-3e-05	-3e-05	0
1689	-4e-05	-6e-05	-4e-05	-0.00023	-0.00018	-3e-05	-3e-05	-3e-05	0
1690	-4e-05	-6e-05	-4e-05	-0.00023	-0.00018	-3e-05	-3e-05	-3e-05	0
1691	2e-05	1e-05	-4e-05	0	0	-1e-05	-1e-05	-2e-05	0
1692	0	2e-05	1e-05	6e-05	-0.00016	0	-2e-05	0	0
1693	0	2e-05	1e-05	6e-05	-0.00016	0	-2e-05	0	0
1694	0	2e-05	1e-05	6e-05	-0.00016	0	-2e-05	0	0
1695	0	2e-05	1e-05	6e-05	-0.00016	0	-2e-05	0	0
1696	0	2e-05	1e-05	6e-05	-0.00016	0	-2e-05	0	0
1697	0	2e-05	1e-05	6e-05	-0.00016	0	-2e-05	0	0
1698	0	2e-05	1e-05	6e-05	-0.00016	0	-2e-05	0	0
1699	0	2e-05	1e-05	6e-05	-0.00016	0	-2e-05	0	0
1700	0	2e-05	1e-05	6e-05	-0.00016	0	-2e-05	0	0
1701	0	2e-05	1e-05	6e-05	-0.00016	0	-2e-05	0	0
1702	0	2e-05	1e-05	6e-05	-0.00016	0	-2e-05	0	0
1703	0	2e-05	1e-05	6e-05	-0.00016	0	-2e-05	0	0
1704	0	2e-05	1e-05	6e-05	-0.00016	0	-2e-05	0	0
1705	0	2e-05	1e-05	6e-05	-0.00016	0	-2e-05	0	0
1706	0	2e-05	1e-05	6e-05	-0.00016	0	-2e-05	0	0
1707	0	2e-05	1e-05	6e-05	-0.00016	0	-2e-05	0	0
1708	0	2e-05	1e-05	6e-05	-0.00016	0	-2e-05	0	0
1709	0	2e-05	1e-05	6e-05	-0.00016	0	-2e-05	0	0
1710	0	2e-05	1e-05	6e-05	-0.00016	0	-2e-05	0	0
1711	0	2e-05	1e-05	6e-05	-0.00016	0	-2e-05	0	0
1712	0	2e-05	1e-05	6e-05	-0.00016	0	-2e-05	0	0
1713	0	2e-05	1e-05	6e-05	-0.00016	0	-2e-05	0	0
1714	5e-05	-1e-05	0	8e-05	-0.00013	-3e-05	0	1e-05	0
1715	7e-05	0	-4e-05	-0.0001	-0.00021	-3e-05	0	-2e-05	0
1716	7e-05	0	-4e-05	-0.0001	-0.00021	-3e-05	0	-2e-05	0
1717	7e-05	0	-4e-05	-0.0001	-0.00021	-3e-05	0	-2e-05	0
1718	7e-05	0	-4e-05	-0.0001	-0.00021	-3e-05	0	-2e-05	0
1719	7e-05	0	-4e-05	-0.0001	-0.00021	-3e-05	0	-2e-05	0
1720	7e-05	0	-4e-05	-0.0001	-0.00021	-3e-05	0	-2e-05	0
1721	7e-05	0	-4e-05	-0.0001	-0.00021	-3e-05	0	-2e-05	0
1722	7e-05	0	-4e-05	-0.0001	-0.00021	-3e-05	0	-2e-05	0
1723	7e-05	0	-4e-05	-0.0001	-0.00021	-3e-05	0	-2e-05	0
1724	7e-05	0	-4e-05	-0.0001	-0.00021	-3e-05	0	-2e-05	0
1725	7e-05	0	-4e-05	-0.0001	-0.00021	-3e-05	0	-2e-05	0
1726	7e-05	0	-4e-05	-0.0001	-0.00021	-3e-05	0	-2e-05	0
1727	7e-05	0	-4e-05	-0.0001	-0.00021	-3e-05	0	-2e-05	0
1728	7e-05	0	-4e-05	-0.0001	-0.00021	-3e-05	0	-2e-05	0
1729	7e-05	0	-4e-05	-0.0001	-0.00021	-3e-05	0	-2e-05	0
1730	7e-05	0	-4e-05	-0.0001	-0.00021	-3e-05	0	-2e-05	0
1731	7e-05	0	-4e-05	-0.0001	-0.00021	-3e-05	0	-2e-05	0
1732	7e-05	0	-4e-05	-0.0001	-0.00021	-3e-05	0	-2e-05	0
1733	7e-05	0	-4e-05	-0.0001	-0.00021	-3e-05	0	-2e-05	0
1734	7e-05	0	-4e-05	-0.0001	-0.00021	-3e-05	0	-2e-05	0
1735	7e-05	0	-4e-05	-0.0001	-0.00021	-3e-05	0	-2e-05	0
1736	-1e-05	0	3e-05	5e-05	-0.0002	-1e-05	0	-3e-05	0
1738	3e-05	-1e-05	0	-0.00015	-0.00025	-4e-05	-2e-05	-2e-05	0
1739	3e-05	-1e-05	0	-0.00015	-0.00025	-4e-05	-2e-05	-2e-05	0
1740	3e-05	-1e-05	0	-0.00015	-0.00025	-4e-05	-2e-05	-2e-05	0
1741	3e-05	-1e-05	0	-0.00015	-0.00025	-4e-05	-2e-05	-2e-05	0
1742	3e-05	-1e-05	0	-0.00015	-0.00025	-4e-05	-2e-05	-2e-05	0
1743	3e-05	-1e-05	0	-0.00015	-0.00025	-4e-05	-2e-05	-2e-05	0
1744	3e-05	-1e-05	0	-0.00015	-0.00025	-4e-05	-2e-05	-2e-05	0
1745	3e-05	-1e-05	0	-0.00015	-0.00025	-4e-05	-2e-05	-2e-05	0
1746	3e-05	-1e-05	0	-0.00015	-0.00025	-4e-05	-2e-05	-2e-05	0
1747	3e-05	-1e-05	0	-0.00015	-0.00025	-4e-05	-2e-05	-2e-05	0
1748	3e-05	-1e-05	0	-0.00015	-0.00025	-4e-05	-2e-05	-2e-05	0
1749	3e-05	-1e-05	0	-0.00015	-0.00025	-4e-05	-2e-05	-2e-05	0
1750	3e-05	-1e-05	0	-0.00015	-0.00025	-4e-05	-2e-05	-2e-05	0
1751	-2e-05	-4e-05	0	1e-05	6e-05	1e-05	-2e-05	-3e-05	0
1752	-7e-05	-2e-05	-3e-05	-0.00014	-0.00014	-4e-05	-2e-05	0	0
1753	-7e-05	-2e-05	-3e-05	-0.00014	-0.00014	-4e-05	-2e-05	0	0
1754	-7e-05	-2e-05	-3e-05	-0.00014	-0.00014	-4e-05	-2e-05	0	0
1755	-7e-05	-2e-05	-3e-05	-0.00014	-0.00014	-4e-05	-2e-05	0	0
1756	-7e-05	-2e-05	-3e-05	-0.00014	-0.00014	-4e-05	-2e-05	0	0
1757	-7e-05	-2e-05	-3e-05	-0.00014	-0.00014	-4e-05	-2e-05	0	0
1758	-7e-05	-2e-05	-3e-05	-0.00014	-0.00014	-4e-05	-2e-05	0	0
1759	-7e-05	-2e-05	-3e-05	-0.00014	-0.00014	-4e-05	-2e-05	0	0
1760	-7e-05	-2e-05	-3e-05	-0.00014	-0.00014	-4e-05	-2e-05	0	0
1761	-7e-05	-2e-05	-3e-05	-0.00014	-0.00014	-4e-05	-2e-05	0	0
1762	-7e-05	-2e-05	-3e-05	-0.00014	-0.00014	-4e-05	-2e-05	0	0
1763	-7e-05	-2e-05	-3e-05	-0.00014	-0.00014	-4e-05	-2e-05	0	0
1764	-7e-05	-2e-05	-3e-05	-0.00014	-0.00014	-4e-05	-2e-05	0	0
1765	-7e-05	-2e-05	-3e-05	-0.00014	-0.00014	-4e-05	-2e-05	0	0
1766	-7e-05	-2e-05	-3e-05	-0.00014	-0.00014	-4e-05	-2e-05	0	0
1767	-7e-05	-2e-05	-3e-05	-0.00014	-0.00014	-4e-05	-2e-05	0	0
1768	-7e-05	-2e-05	-3e-05	-0.00014	-0.00014	-4e-05	-2e-05	0	0
1769	-7e-05	-2e-05	-3e-05	-0.00014	-0.00014	-4e-05	-2e-05	0	0
1770	-7e-05	-2e-05	-3e-05	-0.00014	-0.00014	-4e-05	-2e-05	0	0
1772	-7e-05	-2e-05	-3e-05	-0.00014	-0.00014	-4e-05	-2e-05	0	0
1773	-7e-05	-2e-05	-3e-05	-0.00014	-0.00014	-4e-05	-2e-05	0	0
1774	2e-05	-1e-05	3e-05	6e-05	-6e-05	1e-05	1e-05	-1e-05	0
1775	0	-2e-05	-3e-05	3e-05	-2e-05	0	-2e-05	0	0
1776	0	-2e-05	-3e-05	3e-05	-2e-05	0	-2e-05	0	0
1777	0	-2e-05	-3e-05	3e-05	-2e-05	0	-2e-05	0	0
1778	0	-2e-05	-3e-05	3e-05	-2e-05	0	-2e-05	0	0
1779	0	-2e-05	-3e-05	3e-05	-2e-05	0	-2e-05	0	0
1780	0	-2e-05	-3e-05	3e-05	-2e-05	0	-2e-05	0	0
1781	0	-2e-05	-3e-05	3e-05	-2e-05	0	-2e-05	0	0
1782	0	-2e-05	-3e-05	3e-05	-2e-05	0	-2e-05	0	0
1783	0	-2e-05	-3e-05	3e-05	-2e-05	0	-2e-05	0	0
1784	0	-2e-05	-3e-05	3e-05	-2e-05	0	-2e-05	0	0
1785	0	-2e-05	-3e-05	3e-05	-2e-05	0	-2e-05	0	0
1786	0	-2e-05	-3e-05	3e-05	-2e-05	0	-2e-05	0	0
1788	0	-2e-05	-3e-05	3e-05	-2e-05	0	-2e-05	0	0
1790	0	-2e-05	-3e-05	3e-05	-2e-05	0	-2e-05	0	0
1791	0	-2e-05	-3e-05	3e-05	-2e-05	0	-2e-05	0	0
1792	0	-2e-05	-3e-05	3e-05	-2e-05	0	-2e-05	0	0
1793	0	-2e-05	-3e-05	3e-05	-2e-05	0	-2e-05	0	0
1794	0	-2e-05	-3e-05	3e-05	-2e-05	0	-2e-05	0	0
1795	0	-2e-05	-3e-05	3e-05	-2e-05	0	-2e-05	0	0
1796	0	-2e-05	-3e-05	3e-05	-2e-05	0	-2e-05	0	0
1797	0	-2e-05	-3e-05	3e-05	-2e-05	0	-2e-05	0	0
1798	0	-2e-05	-3e-05	3e-05	-2e-05	0	-2e-05	0	0
1799	0	-2e-05	-3e-05	3e-05	-2e-05	0	-2e-05	0	0
1800	0	-2e-05	-3e-05	3e-05	-2e-05	0	-2e-05	0	0
1801	0	-2e-05	-3e-05	3e-05	-2e-05	0	-2e-05	0	0
1802	0	-2e-05	-3e-05	3e-05	-2e-05	0	-2e-05	0	0
1803	0	-2e-05	-3e-05	3e-05	-2e-05	0	-2e-05	0	0
1804	0	-2e-05	-3e-05	3e-05	-2e-05	0	-2e-05	0	0
1805	5e-05	3e-05	-2e-05	3e-05	-5e-05	0	-1e-05	-1e-05	0
1806	-3e-05	-1e-05	0	2e-05	5e-05	1e-05	0	0	0
1807	-3e-05	-1e-05	0	2e-05	5e-05	1e-05	0	0	0
1808	-3e-05	-1e-05	0	2e-05	5e-05	1e-05	0	0	0
1809	-3e-05	-1e-05	0	2e-05	5e-05	1e-05	0	0	0
1810	-3e-05	-1e-05	0	2e-05	5e-05	1e-05	0	0	0
1811	-3e-05	-1e-05	0	2e-05	5e-05	1e-05	0	0	0
1812	-3e-05	-1e-05	0	2e-05	5e-05	1e-05	0	0	0
1813	-3e-05	-1e-05	0	2e-05	5e-05	1e-05	0	0	0
1814	-3e-05	-1e-05	0	2e-05	5e-05	1e-05	0	0	0
1815	-3e-05	-1e-05	0	2e-05	5e-05	1e-05	0	0	0
1816	-3e-05	-1e-05	0	2e-05	5e-05	1e-05	0	0	0
1817	-3e-05	-1e-05	0	2e-05	5e-05	1e-05	0	0	0
1818	-3e-05	-1e-05	0	2e-05	5e-05	1e-05	0	0	0
1819	-2e-05	0	-5e-05	-0.00021	1e-05	-3e-05	-1e-05	-1e-05	0
1820	-2e-05	0	-3e-05	5e-05	-5e-05	0	2e-05	1e-05	0
1821	-2e-05	0	-3e-05	5e-05	-5e-05	0	2e-05	1e-05	0
1822	-2e-05	0	-3e-05	5e-05	-5e-05	0	2e-05	1e-05	0
1823	-2e-05	0	-3e-05	5e-05	-5e-05	0	2e-05	1e-05	0
1824	-2e-05	0	-3e-05	5e-05	-5e-05	0	2e-05	1e-05	0
1825	-2e-05	0	-3e-05	5e-05	-5e-05	0	2e-05	1e-05	0
1826	-2e-05	0	-3e-05	5e-05	-5e-05	0	2e-05	1e-05	0
1827	-2e-05	0	-3e-05	5e-05	-5e-05	0	2e-05	1e-05	0
1828	-2e-05	0	-3e-05	5e-05	-5e-05	0	2e-05	1e-05	0
1829	-2e-05	0	-3e-05	5e-05	-5e-05	0	2e-05	1e-05	0
1830	-2e-05	0	-3e-05	5e-05	-5e-05	0	2e-05	1e-05	0
1831	-2e-05	0	-3e-05	5e-05	-5e-05	0	2e-05	1e-05	0
1832	-2e-05	0	-3e-05	5e-05	-5e-05	0	2e-05	1e-05	0
1833	-2e-05	0	-3e-05	5e-05	-5e-05	0	2e-05	1e-05	0
1834	1e-05	-1e-05	-4e-05	5e-05	9e-05	-3e-05	-1e-05	-3e-05	0
1835	-6e-05	-1e-05	0	-6e-05	-8e-05	2e-05	-1e-05	-1e-05	0
1836	-6e-05	-1e-05	0	-6e-05	-8e-05	2e-05	-1e-05	-1e-05	0
1839	-6e-05	-1e-05	0	-6e-05	-8e-05	2e-05	-1e-05	-1e-05	0
1840	-6e-05	-1e-05	0	-6e-05	-8e-05	2e-05	-1e-05	-1e-05	0
1841	-6e-05	-1e-05	0	-6e-05	-8e-05	2e-05	-1e-05	-1e-05	0
1842	-6e-05	-1e-05	0	-6e-05	-8e-05	2e-05	-1e-05	-1e-05	0
1843	-6e-05	-1e-05	0	-6e-05	-8e-05	2e-05	-1e-05	-1e-05	0
1844	-6e-05	-1e-05	0	-6e-05	-8e-05	2e-05	-1e-05	-1e-05	0
1845	-6e-05	-1e-05	0	-6e-05	-8e-05	2e-05	-1e-05	-1e-05	0
1846	-6e-05	-1e-05	0	-6e-05	-8e-05	2e-05	-1e-05	-1e-05	0
1847	-6e-05	-1e-05	0	-6e-05	-8e-05	2e-05	-1e-05	-1e-05	0
1848	3e-05	-2e-05	-1e-05	-9e-05	-6e-05	0	-2e-05	2e-05	0
1849	0	-3e-05	-1e-05	0	0.00028	-3e-05	-2e-05	-2e-05	0
1850	0	-3e-05	-1e-05	0	0.00028	-3e-05	-2e-05	-2e-05	0
1851	0	-3e-05	-1e-05	0	0.00028	-3e-05	-2e-05	-2e-05	0
1852	0	-3e-05	-1e-05	0	0.00028	-3e-05	-2e-05	-2e-05	0
1853	0	-3e-05	-1e-05	0	0.00028	-3e-05	-2e-05	-2e-05	0
1854	0	-3e-05	-1e-05	0	0.00028	-3e-05	-2e-05	-2e-05	0
1855	0	-3e-05	-1e-05	0	0.00028	-3e-05	-2e-05	-2e-05	0
1856	0	-3e-05	-1e-05	0	0.00028	-3e-05	-2e-05	-2e-05	0
1857	0	-3e-05	-1e-05	0	0.00028	-3e-05	-2e-05	-2e-05	0
1858	0	-3e-05	-1e-05	0	0.00028	-3e-05	-2e-05	-2e-05	0
1859	0	-3e-05	-1e-05	0	0.00028	-3e-05	-2e-05	-2e-05	0
1860	0	-3e-05	-1e-05	0	0.00028	-3e-05	-2e-05	-2e-05	0
1861	0	-3e-05	-1e-05	0	0.00028	-3e-05	-2e-05	-2e-05	0
1862	0	-3e-05	-1e-05	0	0.00028	-3e-05	-2e-05	-2e-05	0
1863	0	-3e-05	-1e-05	0	0.00028	-3e-05	-2e-05	-2e-05	0
1864	0	-3e-05	-1e-05	0	0.00028	-3e-05	-2e-05	-2e-05	0
1865	0	-3e-05	-1e-05	0	0.00028	-3e-05	-2e-05	-2e-05	0
1866	0	-3e-05	-1e-05	0	0.00028	-3e-05	-2e-05	-2e-05	0
1867	0	-3e-05	-1e-05	0	0.00028	-3e-05	-2e-05	-2e-05	0
1868	0	-3e-05	-1e-05	0	0.00028	-3e-05	-2e-05	-2e-05	0
1869	0	-3e-05	-1e-05	0	0.00028	-3e-05	-2e-05	-2e-05	0
1870	0	-3e-05	-1e-05	0	0.00028	-3e-05	-2e-05	-2e-05	0
1871	0	-3e-05	-1e-05	0	0.00028	-3e-05	-2e-05	-2e-05	0
1872	0	-3e-05	-1e-05	0	0.00028	-3e-05	-2e-05	-2e-05	0
1873	0	-3e-05	-1e-05	0	0.00028	-3e-05	-2e-05	-2e-05	0
1874	0	-3e-05	-1e-05	0	0.00028	-3e-05	-2e-05	-2e-05	0
1875	0	-3e-05	-1e-05	0	0.00028	-3e-05	-2e-05	-2e-05	0
1876	0	-3e-05	-1e-05	0	0.00028	-3e-05	-2e-05	-2e-05	0
1877	0	-3e-05	-1e-05	0	0.00028	-3e-05	-2e-05	-2e-05	0
1878	0	-3e-05	-1e-05	0	0.00028	-3e-05	-2e-05	-2e-05	0
1879	0	-1e-05	2e-05	-4e-05	-0.00047	2e-05	1e-05	1e-05	0
1880	0	-1e-05	2e-05	-4e-05	-0.00047	2e-05	1e-05	1e-05	0
1882	0	-1e-05	2e-05	-4e-05	-0.00047	2e-05	1e-05	1e-05	0
1883	0	-1e-05	2e-05	-4e-05	-0.00047	2e-05	1e-05	1e-05	0
1884	0	-1e-05	2e-05	-4e-05	-0.00047	2e-05	1e-05	1e-05	0
1885	0	-1e-05	2e-05	-4e-05	-0.00047	2e-05	1e-05	1e-05	0
1886	0	-1e-05	2e-05	-4e-05	-0.00047	2e-05	1e-05	1e-05	0
1889	0	-1e-05	2e-05	-4e-05	-0.00047	2e-05	1e-05	1e-05	0
1890	0	-1e-05	2e-05	-4e-05	-0.00047	2e-05	1e-05	1e-05	0
1891	0	-1e-05	2e-05	-4e-05	-0.00047	2e-05	1e-05	1e-05	0
1892	0	-1e-05	2e-05	-4e-05	-0.00047	2e-05	1e-05	1e-05	0
1893	0	-1e-05	2e-05	-4e-05	-0.00047	2e-05	1e-05	1e-05	0
1894	0	-1e-05	2e-05	-4e-05	-0.00047	2e-05	1e-05	1e-05	0
1895	0	-1e-05	2e-05	-4e-05	-0.00047	2e-05	1e-05	1e-05	0
1896	0	-1e-05	2e-05	-4e-05	-0.00047	2e-05	1e-05	1e-05	0
1897	0	-1e-05	2e-05	-4e-05	-0.00047	2e-05	1e-05	1e-05	0
1898	0	-1e-05	2e-05	-4e-05	-0.00047	2e-05	1e-05	1e-05	0
1899	0	-1e-05	2e-05	-4e-05	-0.00047	2e-05	1e-05	1e-05	0
1900	0	-1e-05	2e-05	-4e-05	-0.00047	2e-05	1e-05	1e-05	0
1901	0	-1e-05	2e-05	-4e-05	-0.00047	2e-05	1e-05	1e-05	0
1902	-2e-05	-2e-05	-3e-05	-3e-05	-5e-05	1e-05	0	-2e-05	0
1903	-2e-05	-2e-05	-3e-05	-3e-05	-5e-05	1e-05	0	-2e-05	0
1904	-2e-05	-2e-05	-3e-05	-3e-05	-5e-05	1e-05	0	-2e-05	0
1905	-2e-05	-2e-05	-3e-05	-3e-05	-5e-05	1e-05	0	-2e-05	0
1906	-2e-05	-2e-05	-3e-05	-3e-05	-5e-05	1e-05	0	-2e-05	0
1907	-2e-05	-2e-05	-3e-05	-3e-05	-5e-05	1e-05	0	-2e-05	0
1908	-2e-05	-2e-05	-3e-05	-3e-05	-5e-05	1e-05	0	-2e-05	0
1909	-1e-05	-2e-05	1e-05	1e-05	-0.00021	0	0	0	0
1910	-1e-05	-2e-05	1e-05	1e-05	-0.00021	0	0	0	0
1911	-1e-05	-2e-05	1e-05	1e-05	-0.00021	0	0	0	0
1912	-1e-05	-2e-05	1e-05	1e-05	-0.00021	0	0	0	0
1913	-1e-05	-2e-05	1e-05	1e-05	-0.00021	0	0	0	0
1914	-1e-05	-2e-05	1e-05	1e-05	-0.00021	0	0	0	0
1915	0	0	-4e-05	-3e-05	0.0001	-2e-05	0	-1e-05	0
1916	0	0	3e-05	2e-05	8e-05	1e-05	-1e-05	-2e-05	0
1918	0	0	3e-05	2e-05	8e-05	1e-05	-1e-05	-2e-05	0
1919	0	0	3e-05	2e-05	8e-05	1e-05	-1e-05	-2e-05	0
1920	0	0	3e-05	2e-05	8e-05	1e-05	-1e-05	-2e-05	0
1921	0	0	3e-05	2e-05	8e-05	1e-05	-1e-05	-2e-05	0
1922	0	0	3e-05	2e-05	8e-05	1e-05	-1e-05	-2e-05	0
1923	0	0	3e-05	2e-05	8e-05	1e-05	-1e-05	-2e-05	0
1924	0	0	3e-05	2e-05	8e-05	1e-05	-1e-05	-2e-05	0
1925	0	0	3e-05	2e-05	8e-05	1e-05	-1e-05	-2e-05	0
1926	0	0	3e-05	2e-05	8e-05	1e-05	-1e-05	-2e-05	0
1927	0	0	3e-05	2e-05	8e-05	1e-05	-1e-05	-2e-05	0
1928	0	0	3e-05	2e-05	8e-05	1e-05	-1e-05	-2e-05	0
1929	0	0	3e-05	2e-05	8e-05	1e-05	-1e-05	-2e-05	0
1930	0	0	3e-05	2e-05	8e-05	1e-05	-1e-05	-2e-05	0
1931	-1e-05	0	-3e-05	-6e-05	-4e-05	-2e-05	-3e-05	0	0
1932	-0.0001	-1e-05	-1e-05	-2e-05	0.00059	1e-05	2e-05	-1e-05	0
1933	-0.0001	-1e-05	-1e-05	-2e-05	0.00059	1e-05	2e-05	-1e-05	0
1934	-0.0001	-1e-05	-1e-05	-2e-05	0.00059	1e-05	2e-05	-1e-05	0
1935	-0.0001	-1e-05	-1e-05	-2e-05	0.00059	1e-05	2e-05	-1e-05	0
1936	-0.0001	-1e-05	-1e-05	-2e-05	0.00059	1e-05	2e-05	-1e-05	0
1939	-0.0001	-1e-05	-1e-05	-2e-05	0.00059	1e-05	2e-05	-1e-05	0
1940	-0.0001	-1e-05	-1e-05	-2e-05	0.00059	1e-05	2e-05	-1e-05	0
1941	-0.0001	-1e-05	-1e-05	-2e-05	0.00059	1e-05	2e-05	-1e-05	0
1942	-0.0001	-1e-05	-1e-05	-2e-05	0.00059	1e-05	2e-05	-1e-05	0
1943	-0.0001	-1e-05	-1e-05	-2e-05	0.00059	1e-05	2e-05	-1e-05	0
1944	-0.0001	-1e-05	-1e-05	-2e-05	0.00059	1e-05	2e-05	-1e-05	0
1945	-0.0001	-1e-05	-1e-05	-2e-05	0.00059	1e-05	2e-05	-1e-05	0
1946	-0.0001	-1e-05	-1e-05	-2e-05	0.00059	1e-05	2e-05	-1e-05	0
1947	-0.0001	-1e-05	-1e-05	-2e-05	0.00059	1e-05	2e-05	-1e-05	0
1948	-0.0001	-1e-05	-1e-05	-2e-05	0.00059	1e-05	2e-05	-1e-05	0
1949	-0.0001	-1e-05	-1e-05	-2e-05	0.00059	1e-05	2e-05	-1e-05	0
1950	-0.0001	-1e-05	-1e-05	-2e-05	0.00059	1e-05	2e-05	-1e-05	0
1951	-0.0001	-1e-05	-1e-05	-2e-05	0.00059	1e-05	2e-05	-1e-05	0
1952	-0.0001	-1e-05	-1e-05	-2e-05	0.00059	1e-05	2e-05	-1e-05	0
1953	-0.0001	-1e-05	-1e-05	-2e-05	0.00059	1e-05	2e-05	-1e-05	0
1954	-0.0001	-1e-05	-1e-05	-2e-05	0.00059	1e-05	2e-05	-1e-05	0
1955	-0.0001	-1e-05	-1e-05	-2e-05	0.00059	1e-05	2e-05	-1e-05	0
1956	-0.0001	-1e-05	-1e-05	-2e-05	0.00059	1e-05	2e-05	-1e-05	0
1957	-0.0001	-1e-05	-1e-05	-2e-05	0.00059	1e-05	2e-05	-1e-05	0
1958	-0.0001	-1e-05	-1e-05	-2e-05	0.00059	1e-05	2e-05	-1e-05	0
1959	-0.0001	-1e-05	-1e-05	-2e-05	0.00059	1e-05	2e-05	-1e-05	0
1960	-0.0001	-1e-05	-1e-05	-2e-05	0.00059	1e-05	2e-05	-1e-05	0
1961	-3e-05	0	2e-05	5e-05	-1e-05	-2e-05	0	-1e-05	0
1962	3e-05	-2e-05	-7e-05	-3e-05	-0.0001	-3e-05	-3e-05	-2e-05	0
1963	3e-05	-2e-05	-7e-05	-3e-05	-0.0001	-3e-05	-3e-05	-2e-05	0
1964	3e-05	-2e-05	-7e-05	-3e-05	-0.0001	-3e-05	-3e-05	-2e-05	0
1965	3e-05	-2e-05	-7e-05	-3e-05	-0.0001	-3e-05	-3e-05	-2e-05	0
1966	3e-05	-2e-05	-7e-05	-3e-05	-0.0001	-3e-05	-3e-05	-2e-05	0
1967	-4e-05	-2e-05	-6e-05	-7e-05	-4e-05	1e-05	-1e-05	0	0
1968	-4e-05	-2e-05	-6e-05	-7e-05	-4e-05	1e-05	-1e-05	0	0
1969	-4e-05	-2e-05	-6e-05	-7e-05	-4e-05	1e-05	-1e-05	0	0
1970	-4e-05	-2e-05	-6e-05	-7e-05	-4e-05	1e-05	-1e-05	0	0
1971	-4e-05	-2e-05	-6e-05	-7e-05	-4e-05	1e-05	-1e-05	0	0
1972	-4e-05	-2e-05	-6e-05	-7e-05	-4e-05	1e-05	-1e-05	0	0
1973	-4e-05	-2e-05	-6e-05	-7e-05	-4e-05	1e-05	-1e-05	0	0
1974	-4e-05	-2e-05	-6e-05	-7e-05	-4e-05	1e-05	-1e-05	0	0
1975	-4e-05	-2e-05	-6e-05	-7e-05	-4e-05	1e-05	-1e-05	0	0
1976	-4e-05	-2e-05	-6e-05	-7e-05	-4e-05	1e-05	-1e-05	0	0
1977	-4e-05	-2e-05	-6e-05	-7e-05	-4e-05	1e-05	-1e-05	0	0
1978	-4e-05	-2e-05	-6e-05	-7e-05	-4e-05	1e-05	-1e-05	0	0
1979	-4e-05	-2e-05	-6e-05	-7e-05	-4e-05	1e-05	-1e-05	0	0
1980	-4e-05	-2e-05	-6e-05	-7e-05	-4e-05	1e-05	-1e-05	0	0
1981	-4e-05	-2e-05	-6e-05	-7e-05	-4e-05	1e-05	-1e-05	0	0
1982	-4e-05	-2e-05	-6e-05	-7e-05	-4e-05	1e-05	-1e-05	0	0
1983	-4e-05	-2e-05	-6e-05	-7e-05	-4e-05	1e-05	-1e-05	0	0
1984	-4e-05	-2e-05	-6e-05	-7e-05	-4e-05	1e-05	-1e-05	0	0
1985	-4e-05	-2e-05	-6e-05	-7e-05	-4e-05	1e-05	-1e-05	0	0
1986	-4e-05	-2e-05	-6e-05	-7e-05	-4e-05	1e-05	-1e-05	0	0
1989	-4e-05	-2e-05	-6e-05	-7e-05	-4e-05	1e-05	-1e-05	0	0
1990	-4e-05	-2e-05	-6e-05	-7e-05	-4e-05	1e-05	-1e-05	0	0
1991	-4e-05	-2e-05	-6e-05	-7e-05	-4e-05	1e-05	-1e-05	0	0
1992	-4e-05	-1e-05	2e-05	6e-05	9e-05	-1e-05	-1e-05	-1e-05	0
1993	0	-1e-05	-1e-05	-6e-05	-5e-05	-1e-05	-2e-05	-1e-05	0
1994	1e-05	-1e-05	2e-05	0.00025	8e-05	0	-2e-05	-2e-05	0
1995	-1e-05	1e-05	0	7e-05	0.00014	-1e-05	-2e-05	2e-05	0
1996	-1e-05	1e-05	0	7e-05	0.00014	-1e-05	-2e-05	2e-05	0
1997	-1e-05	1e-05	0	7e-05	0.00014	-1e-05	-2e-05	2e-05	0
1998	-1e-05	1e-05	0	7e-05	0.00014	-1e-05	-2e-05	2e-05	0
1999	-1e-05	1e-05	0	7e-05	0.00014	-1e-05	-2e-05	2e-05	0
2000	-1e-05	1e-05	0	7e-05	0.00014	-1e-05	-2e-05	2e-05	0
2001	-1e-05	1e-05	0	7e-05	0.00014	-1e-05	-2e-05	2e-05	0
2002	-1e-05	1e-05	0	7e-05	0.00014	-1e-05	-2e-05	2e-05	0
2003	-1e-05	1e-05	0	7e-05	0.00014	-1e-05	-2e-05	2e-05	0
2004	-1e-05	1e-05	0	7e-05	0.00014	-1e-05	-2e-05	2e-05	0
2005	-1e-05	1e-05	0	7e-05	0.00014	-1e-05	-2e-05	2e-05	0
2006	-1e-05	1e-05	0	7e-05	0.00014	-1e-05	-2e-05	2e-05	0
2007	-1e-05	1e-05	0	7e-05	0.00014	-1e-05	-2e-05	2e-05	0
2008	-1e-05	1e-05	0	7e-05	0.00014	-1e-05	-2e-05	2e-05	0
2009	-1e-05	1e-05	0	7e-05	0.00014	-1e-05	-2e-05	2e-05	0
2010	-1e-05	1e-05	0	7e-05	0.00014	-1e-05	-2e-05	2e-05	0
2011	-1e-05	1e-05	0	7e-05	0.00014	-1e-05	-2e-05	2e-05	0
2012	-1e-05	1e-05	0	7e-05	0.00014	-1e-05	-2e-05	2e-05	0
2013	-1e-05	1e-05	0	7e-05	0.00014	-1e-05	-2e-05	2e-05	0
2014	-1e-05	-2e-05	2e-05	1e-05	-1e-05	0	-2e-05	1e-05	0
2015	1e-05	-4e-05	-7e-05	-5e-05	-0.0001	-3e-05	-1e-05	2e-05	0
2016	1e-05	-4e-05	-7e-05	-5e-05	-0.0001	-3e-05	-1e-05	2e-05	0
2017	1e-05	-4e-05	-7e-05	-5e-05	-0.0001	-3e-05	-1e-05	2e-05	0
2018	1e-05	-4e-05	-7e-05	-5e-05	-0.0001	-3e-05	-1e-05	2e-05	0
2019	1e-05	-4e-05	-7e-05	-5e-05	-0.0001	-3e-05	-1e-05	2e-05	0
2020	1e-05	-4e-05	-7e-05	-5e-05	-0.0001	-3e-05	-1e-05	2e-05	0
2021	1e-05	-4e-05	-7e-05	-5e-05	-0.0001	-3e-05	-1e-05	2e-05	0
2022	1e-05	-4e-05	-7e-05	-5e-05	-0.0001	-3e-05	-1e-05	2e-05	0
2023	1e-05	-4e-05	-7e-05	-5e-05	-0.0001	-3e-05	-1e-05	2e-05	0
2024	1e-05	-4e-05	-7e-05	-5e-05	-0.0001	-3e-05	-1e-05	2e-05	0
2025	1e-05	-4e-05	-7e-05	-5e-05	-0.0001	-3e-05	-1e-05	2e-05	0
2026	1e-05	-4e-05	-7e-05	-5e-05	-0.0001	-3e-05	-1e-05	2e-05	0
2027	2e-05	-2e-05	-3e-05	-4e-05	-7e-05	-4e-05	-2e-05	-3e-05	0
2028	2e-05	-2e-05	-3e-05	-4e-05	-7e-05	-4e-05	-2e-05	-3e-05	0
2029	2e-05	-2e-05	-3e-05	-4e-05	-7e-05	-4e-05	-2e-05	-3e-05	0
2030	2e-05	-2e-05	-3e-05	-4e-05	-7e-05	-4e-05	-2e-05	-3e-05	0
2031	2e-05	-2e-05	-3e-05	-4e-05	-7e-05	-4e-05	-2e-05	-3e-05	0
2032	2e-05	-2e-05	-3e-05	-4e-05	-7e-05	-4e-05	-2e-05	-3e-05	0
2033	2e-05	-2e-05	-3e-05	-4e-05	-7e-05	-4e-05	-2e-05	-3e-05	0
2034	2e-05	-2e-05	-3e-05	-4e-05	-7e-05	-4e-05	-2e-05	-3e-05	0
2035	2e-05	-2e-05	-3e-05	-4e-05	-7e-05	-4e-05	-2e-05	-3e-05	0
2036	2e-05	-2e-05	-3e-05	-4e-05	-7e-05	-4e-05	-2e-05	-3e-05	0
2039	2e-05	-2e-05	-3e-05	-4e-05	-7e-05	-4e-05	-2e-05	-3e-05	0
2040	2e-05	-2e-05	-3e-05	-4e-05	-7e-05	-4e-05	-2e-05	-3e-05	0
2041	2e-05	-2e-05	-3e-05	-4e-05	-7e-05	-4e-05	-2e-05	-3e-05	0
2042	2e-05	-2e-05	-3e-05	-4e-05	-7e-05	-4e-05	-2e-05	-3e-05	0
2043	0	-4e-05	-3e-05	-4e-05	-0.0001	-1e-05	-2e-05	-2e-05	0
2044	0	-4e-05	-3e-05	-4e-05	-0.0001	-1e-05	-2e-05	-2e-05	0
2045	0	-4e-05	-3e-05	-4e-05	-0.0001	-1e-05	-2e-05	-2e-05	0
2046	0	-4e-05	-3e-05	-4e-05	-0.0001	-1e-05	-2e-05	-2e-05	0
2047	0	-4e-05	-3e-05	-4e-05	-0.0001	-1e-05	-2e-05	-2e-05	0
2048	0	-4e-05	-3e-05	-4e-05	-0.0001	-1e-05	-2e-05	-2e-05	0
2049	0	-4e-05	-3e-05	-4e-05	-0.0001	-1e-05	-2e-05	-2e-05	0
2050	0	-4e-05	-3e-05	-4e-05	-0.0001	-1e-05	-2e-05	-2e-05	0
2051	0	0	-1e-05	3e-05	0.00038	3e-05	0	1e-05	0
2052	6e-05	2e-05	-2e-05	-6e-05	-0.0001	-1e-05	2e-05	1e-05	0
2053	6e-05	2e-05	-2e-05	-6e-05	-0.0001	-1e-05	2e-05	1e-05	0
2054	6e-05	2e-05	-2e-05	-6e-05	-0.0001	-1e-05	2e-05	1e-05	0
2055	6e-05	2e-05	-2e-05	-6e-05	-0.0001	-1e-05	2e-05	1e-05	0
2056	6e-05	2e-05	-2e-05	-6e-05	-0.0001	-1e-05	2e-05	1e-05	0
2057	6e-05	2e-05	-2e-05	-6e-05	-0.0001	-1e-05	2e-05	1e-05	0
2058	6e-05	2e-05	-2e-05	-6e-05	-0.0001	-1e-05	2e-05	1e-05	0
2059	6e-05	2e-05	-2e-05	-6e-05	-0.0001	-1e-05	2e-05	1e-05	0
2060	6e-05	2e-05	-2e-05	-6e-05	-0.0001	-1e-05	2e-05	1e-05	0
2061	6e-05	2e-05	-2e-05	-6e-05	-0.0001	-1e-05	2e-05	1e-05	0
2064	6e-05	2e-05	-2e-05	-6e-05	-0.0001	-1e-05	2e-05	1e-05	1
2065	6e-05	2e-05	-2e-05	-6e-05	-0.0001	-1e-05	2e-05	1e-05	1
2066	6e-05	2e-05	-2e-05	-6e-05	-0.0001	-1e-05	2e-05	1e-05	1
2067	6e-05	2e-05	-2e-05	-6e-05	-0.0001	-1e-05	2e-05	1e-05	1
2068	6e-05	2e-05	-2e-05	-6e-05	-0.0001	-1e-05	2e-05	1e-05	1
2069	6e-05	2e-05	-2e-05	-6e-05	-0.0001	-1e-05	2e-05	1e-05	1
2070	6e-05	2e-05	-2e-05	-6e-05	-0.0001	-1e-05	2e-05	1e-05	1
2071	6e-05	2e-05	-2e-05	-6e-05	-0.0001	-1e-05	2e-05	1e-05	1
2072	6e-05	2e-05	-2e-05	-6e-05	-0.0001	-1e-05	2e-05	1e-05	1
2073	6e-05	2e-05	-2e-05	-6e-05	-0.0001	-1e-05	2e-05	1e-05	1
2074	-1e-05	1e-05	-1e-05	-6e-05	-0.00021	-2e-05	-3e-05	-2e-05	1
2075	-1e-05	0	5e-05	0.00021	0	1e-05	0	-3e-05	1
2076	-1e-05	0	5e-05	0.00021	0	1e-05	0	-3e-05	1
2077	-1e-05	0	5e-05	0.00021	0	1e-05	0	-3e-05	1
2078	-1e-05	0	5e-05	0.00021	0	1e-05	0	-3e-05	1
2079	-1e-05	0	5e-05	0.00021	0	1e-05	0	-3e-05	1
2080	-1e-05	0	5e-05	0.00021	0	1e-05	0	-3e-05	1
2081	-1e-05	0	5e-05	0.00021	0	1e-05	0	-3e-05	1
2082	-1e-05	0	5e-05	0.00021	0	1e-05	0	-3e-05	1
2083	-1e-05	0	5e-05	0.00021	0	1e-05	0	-3e-05	1
2084	-1e-05	0	5e-05	0.00021	0	1e-05	0	-3e-05	1
2085	-1e-05	0	5e-05	0.00021	0	1e-05	0	-3e-05	1
2086	-1e-05	0	5e-05	0.00021	0	1e-05	0	-3e-05	1
2089	-1e-05	0	5e-05	0.00021	0	1e-05	0	-3e-05	1
2090	-1e-05	0	5e-05	0.00021	0	1e-05	0	-3e-05	1
2091	-1e-05	0	5e-05	0.00021	0	1e-05	0	-3e-05	1
2092	-1e-05	0	5e-05	0.00021	0	1e-05	0	-3e-05	1
2093	-1e-05	0	5e-05	0.00021	0	1e-05	0	-3e-05	1
2094	-1e-05	0	5e-05	0.00021	0	1e-05	0	-3e-05	1
2095	-1e-05	0	5e-05	0.00021	0	1e-05	0	-3e-05	1
2096	-3e-05	0	-4e-05	-0.00015	-0.00024	-3e-05	0	-1e-05	1
2097	-3e-05	0	-4e-05	-0.00015	-0.00024	-3e-05	0	-1e-05	1
2098	-3e-05	-5e-05	-1e-05	-1e-05	-7e-05	0	-2e-05	0	1
2099	-3e-05	-5e-05	-1e-05	-1e-05	-7e-05	0	-2e-05	0	1
2100	-3e-05	-5e-05	-1e-05	-1e-05	-7e-05	0	-2e-05	0	1
2101	-3e-05	-5e-05	-1e-05	-1e-05	-7e-05	0	-2e-05	0	1
2102	-3e-05	-5e-05	-1e-05	-1e-05	-7e-05	0	-2e-05	0	1
2103	-3e-05	-5e-05	-1e-05	-1e-05	-7e-05	0	-2e-05	0	1
2104	-3e-05	-5e-05	-1e-05	-1e-05	-7e-05	0	-2e-05	0	1
2105	-3e-05	-5e-05	-1e-05	-1e-05	-7e-05	0	-2e-05	0	1
2106	-3e-05	-5e-05	-1e-05	-1e-05	-7e-05	0	-2e-05	0	1
2107	-3e-05	-5e-05	-1e-05	-1e-05	-7e-05	0	-2e-05	0	1
2108	-3e-05	-5e-05	-1e-05	-1e-05	-7e-05	0	-2e-05	0	1
2109	-3e-05	-5e-05	-1e-05	-1e-05	-7e-05	0	-2e-05	0	1
2110	-3e-05	-5e-05	-1e-05	-1e-05	-7e-05	0	-2e-05	0	1
2111	2e-05	-1e-05	1e-05	-0.00013	-0.00011	1e-05	0	1e-05	1
2112	2e-05	-1e-05	1e-05	-0.00013	-0.00011	1e-05	0	1e-05	1
2113	-0.00018	-4e-05	1e-05	7e-05	0.00014	-1e-05	-1e-05	-3e-05	1
2114	-0.00018	-4e-05	1e-05	7e-05	0.00014	-1e-05	-1e-05	-3e-05	1
2115	-0.00018	-4e-05	1e-05	7e-05	0.00014	-1e-05	-1e-05	-3e-05	1
2116	-0.00018	-4e-05	1e-05	7e-05	0.00014	-1e-05	-1e-05	-3e-05	1
2117	-0.00018	-4e-05	1e-05	7e-05	0.00014	-1e-05	-1e-05	-3e-05	1
2118	-0.00018	-4e-05	1e-05	7e-05	0.00014	-1e-05	-1e-05	-3e-05	1
2119	-0.00018	-4e-05	1e-05	7e-05	0.00014	-1e-05	-1e-05	-3e-05	1
2120	-0.00018	-4e-05	1e-05	7e-05	0.00014	-1e-05	-1e-05	-3e-05	1
2121	-0.00018	-4e-05	1e-05	7e-05	0.00014	-1e-05	-1e-05	-3e-05	1
2122	-0.00018	-4e-05	1e-05	7e-05	0.00014	-1e-05	-1e-05	-3e-05	1
2123	-0.00018	-4e-05	1e-05	7e-05	0.00014	-1e-05	-1e-05	-3e-05	1
2124	-0.00018	-4e-05	1e-05	7e-05	0.00014	-1e-05	-1e-05	-3e-05	1
2125	-0.00018	-4e-05	1e-05	7e-05	0.00014	-1e-05	-1e-05	-3e-05	1
2126	-0.00018	-4e-05	1e-05	7e-05	0.00014	-1e-05	-1e-05	-3e-05	1
2127	-0.00018	-4e-05	1e-05	7e-05	0.00014	-1e-05	-1e-05	-3e-05	1
2128	-0.00018	-4e-05	1e-05	7e-05	0.00014	-1e-05	-1e-05	-3e-05	1
2129	-0.00018	-4e-05	1e-05	7e-05	0.00014	-1e-05	-1e-05	-3e-05	1
2130	-0.00018	-4e-05	1e-05	7e-05	0.00014	-1e-05	-1e-05	-3e-05	1
2131	-0.00018	-4e-05	1e-05	7e-05	0.00014	-1e-05	-1e-05	-3e-05	1
2132	-0.00018	-4e-05	1e-05	7e-05	0.00014	-1e-05	-1e-05	-3e-05	1
2133	-0.00018	-4e-05	1e-05	7e-05	0.00014	-1e-05	-1e-05	-3e-05	1
2134	-2e-05	0	4e-05	0.00016	0.00019	-2e-05	-1e-05	1e-05	1
2135	3e-05	1e-05	0	0	-0.00019	0	-1e-05	-2e-05	1
2136	3e-05	1e-05	0	0	-0.00019	0	-1e-05	-2e-05	1
2138	3e-05	1e-05	0	0	-0.00019	0	-1e-05	-2e-05	1
2139	3e-05	1e-05	0	0	-0.00019	0	-1e-05	-2e-05	1
2140	3e-05	1e-05	0	0	-0.00019	0	-1e-05	-2e-05	1
2141	3e-05	1e-05	0	0	-0.00019	0	-1e-05	-2e-05	1
2142	3e-05	1e-05	0	0	-0.00019	0	-1e-05	-2e-05	1
2143	3e-05	1e-05	0	0	-0.00019	0	-1e-05	-2e-05	1
2144	3e-05	1e-05	0	0	-0.00019	0	-1e-05	-2e-05	1
2145	3e-05	1e-05	0	0	-0.00019	0	-1e-05	-2e-05	1
2146	3e-05	1e-05	0	0	-0.00019	0	-1e-05	-2e-05	1
2147	0	0	0	-1e-05	-1e-05	2e-05	1e-05	-1e-05	1
2148	0	0	0	-1e-05	-1e-05	2e-05	1e-05	-1e-05	1
2149	0	0	0	-1e-05	-1e-05	2e-05	1e-05	-1e-05	1
2150	0	0	0	-1e-05	-1e-05	2e-05	1e-05	-1e-05	1
2151	0	0	0	-1e-05	-1e-05	2e-05	1e-05	-1e-05	1
2152	0	0	0	-1e-05	-1e-05	2e-05	1e-05	-1e-05	1
2153	0	0	0	-1e-05	-1e-05	2e-05	1e-05	-1e-05	1
2154	0	0	0	-1e-05	-1e-05	2e-05	1e-05	-1e-05	1
2155	0	0	0	-1e-05	-1e-05	2e-05	1e-05	-1e-05	1
2156	0	0	0	-1e-05	-1e-05	2e-05	1e-05	-1e-05	1
2157	0	0	0	-1e-05	-1e-05	2e-05	1e-05	-1e-05	1
2158	0	0	0	-1e-05	-1e-05	2e-05	1e-05	-1e-05	1
2159	0	0	0	-1e-05	-1e-05	2e-05	1e-05	-1e-05	1
2160	0	0	0	-1e-05	-1e-05	2e-05	1e-05	-1e-05	1
2161	0	0	0	-1e-05	-1e-05	2e-05	1e-05	-1e-05	1
2162	3e-05	1e-05	-1e-05	3e-05	2e-05	-4e-05	0	-1e-05	1
2163	3e-05	1e-05	-1e-05	3e-05	2e-05	-4e-05	0	-1e-05	1
2164	3e-05	1e-05	-1e-05	3e-05	2e-05	-4e-05	0	-1e-05	1
2165	3e-05	1e-05	-1e-05	3e-05	2e-05	-4e-05	0	-1e-05	1
2166	3e-05	1e-05	-1e-05	3e-05	2e-05	-4e-05	0	-1e-05	1
2167	3e-05	1e-05	-1e-05	3e-05	2e-05	-4e-05	0	-1e-05	1
2168	3e-05	1e-05	-1e-05	3e-05	2e-05	-4e-05	0	-1e-05	1
2169	3e-05	1e-05	-1e-05	3e-05	2e-05	-4e-05	0	-1e-05	1
2170	3e-05	1e-05	-1e-05	3e-05	2e-05	-4e-05	0	-1e-05	1
2171	3e-05	1e-05	-1e-05	3e-05	2e-05	-4e-05	0	-1e-05	1
2172	3e-05	1e-05	-1e-05	3e-05	2e-05	-4e-05	0	-1e-05	1
2173	3e-05	1e-05	-1e-05	3e-05	2e-05	-4e-05	0	-1e-05	1
2174	3e-05	1e-05	-1e-05	3e-05	2e-05	-4e-05	0	-1e-05	1
2175	3e-05	1e-05	-1e-05	3e-05	2e-05	-4e-05	0	-1e-05	1
2176	3e-05	1e-05	-1e-05	3e-05	2e-05	-4e-05	0	-1e-05	1
2177	3e-05	1e-05	-1e-05	3e-05	2e-05	-4e-05	0	-1e-05	1
2178	3e-05	1e-05	-1e-05	3e-05	2e-05	-4e-05	0	-1e-05	1
2179	0	-1e-05	-3e-05	-8e-05	-0.0001	0	-2e-05	-2e-05	1
2180	-1e-05	0	-1e-05	-8e-05	4e-05	-1e-05	-2e-05	0	1
2181	-1e-05	0	-1e-05	-8e-05	4e-05	-1e-05	-2e-05	0	1
2182	-1e-05	0	-1e-05	-8e-05	4e-05	-1e-05	-2e-05	0	1
2183	-1e-05	0	-1e-05	-8e-05	4e-05	-1e-05	-2e-05	0	1
2184	-1e-05	0	-1e-05	-8e-05	4e-05	-1e-05	-2e-05	0	1
2185	-1e-05	0	-1e-05	-8e-05	4e-05	-1e-05	-2e-05	0	1
2186	-1e-05	0	-1e-05	-8e-05	4e-05	-1e-05	-2e-05	0	1
2188	-1e-05	0	-1e-05	-8e-05	4e-05	-1e-05	-2e-05	0	1
2189	-1e-05	0	-1e-05	-8e-05	4e-05	-1e-05	-2e-05	0	1
2190	-1e-05	0	-1e-05	-8e-05	4e-05	-1e-05	-2e-05	0	1
2191	-1e-05	0	-1e-05	-8e-05	4e-05	-1e-05	-2e-05	0	1
2192	-1e-05	0	-1e-05	-8e-05	4e-05	-1e-05	-2e-05	0	1
2193	-1e-05	0	-1e-05	-8e-05	4e-05	-1e-05	-2e-05	0	1
2194	-2e-05	-1e-05	-2e-05	4e-05	0.00052	2e-05	1e-05	-2e-05	1
2195	6e-05	0	-4e-05	-1e-05	-2e-05	-1e-05	-2e-05	-1e-05	1
2196	6e-05	0	-4e-05	-1e-05	-2e-05	-1e-05	-2e-05	-1e-05	1
2197	6e-05	0	-4e-05	-1e-05	-2e-05	-1e-05	-2e-05	-1e-05	1
2198	6e-05	0	-4e-05	-1e-05	-2e-05	-1e-05	-2e-05	-1e-05	1
2199	6e-05	0	-4e-05	-1e-05	-2e-05	-1e-05	-2e-05	-1e-05	1
2200	6e-05	0	-4e-05	-1e-05	-2e-05	-1e-05	-2e-05	-1e-05	1
2201	6e-05	0	-4e-05	-1e-05	-2e-05	-1e-05	-2e-05	-1e-05	1
2202	6e-05	0	-4e-05	-1e-05	-2e-05	-1e-05	-2e-05	-1e-05	1
2203	6e-05	0	-4e-05	-1e-05	-2e-05	-1e-05	-2e-05	-1e-05	1
2204	6e-05	0	-4e-05	-1e-05	-2e-05	-1e-05	-2e-05	-1e-05	1
2205	6e-05	0	-4e-05	-1e-05	-2e-05	-1e-05	-2e-05	-1e-05	1
2206	6e-05	0	-4e-05	-1e-05	-2e-05	-1e-05	-2e-05	-1e-05	1
2207	-1e-05	-1e-05	-2e-05	-2e-05	-0.00013	-4e-05	-1e-05	1e-05	1
2208	-1e-05	-1e-05	-2e-05	-2e-05	-0.00013	-4e-05	-1e-05	1e-05	1
2209	-1e-05	-1e-05	-2e-05	-2e-05	-0.00013	-4e-05	-1e-05	1e-05	1
2210	-1e-05	-1e-05	-2e-05	-2e-05	-0.00013	-4e-05	-1e-05	1e-05	1
2211	-1e-05	-1e-05	-2e-05	-2e-05	-0.00013	-4e-05	-1e-05	1e-05	1
2212	-1e-05	-1e-05	-2e-05	-2e-05	-0.00013	-4e-05	-1e-05	1e-05	1
2213	-1e-05	-1e-05	-2e-05	-2e-05	-0.00013	-4e-05	-1e-05	1e-05	1
2214	-1e-05	-1e-05	-2e-05	-2e-05	-0.00013	-4e-05	-1e-05	1e-05	1
2215	-1e-05	-1e-05	-2e-05	-2e-05	-0.00013	-4e-05	-1e-05	1e-05	1
2216	0	-2e-05	-3e-05	-5e-05	0.00011	0	0	-1e-05	1
2217	0	-2e-05	-3e-05	-5e-05	0.00011	0	0	-1e-05	1
2218	0	-2e-05	-3e-05	-5e-05	0.00011	0	0	-1e-05	1
2219	0	-2e-05	-3e-05	-5e-05	0.00011	0	0	-1e-05	1
2220	0	-2e-05	-3e-05	-5e-05	0.00011	0	0	-1e-05	1
2221	0	-2e-05	-3e-05	-5e-05	0.00011	0	0	-1e-05	1
2222	0	-2e-05	-3e-05	-5e-05	0.00011	0	0	-1e-05	1
2223	0	-2e-05	-3e-05	-5e-05	0.00011	0	0	-1e-05	1
2224	0	-2e-05	-3e-05	-5e-05	0.00011	0	0	-1e-05	1
2225	0	-2e-05	-3e-05	-5e-05	0.00011	0	0	-1e-05	1
2226	0	-2e-05	-3e-05	-5e-05	0.00011	0	0	-1e-05	1
2227	0	-2e-05	-3e-05	-5e-05	0.00011	0	0	-1e-05	1
2228	0	-2e-05	-3e-05	-5e-05	0.00011	0	0	-1e-05	1
2229	0	-2e-05	-3e-05	-5e-05	0.00011	0	0	-1e-05	1
2230	0	-2e-05	-3e-05	-5e-05	0.00011	0	0	-1e-05	1
2231	0	-3e-05	0	8e-05	0.00012	1e-05	-2e-05	-1e-05	1
2232	0	-3e-05	0	8e-05	0.00012	1e-05	-2e-05	-1e-05	1
2233	0	-3e-05	0	8e-05	0.00012	1e-05	-2e-05	-1e-05	1
2234	0	-3e-05	0	8e-05	0.00012	1e-05	-2e-05	-1e-05	1
2235	0	-3e-05	0	8e-05	0.00012	1e-05	-2e-05	-1e-05	1
2236	0	-3e-05	0	8e-05	0.00012	1e-05	-2e-05	-1e-05	1
2238	0	-3e-05	0	8e-05	0.00012	1e-05	-2e-05	-1e-05	1
2239	2e-05	0	0	-3e-05	-0.00017	-3e-05	-1e-05	1e-05	1
2240	2e-05	0	0	-3e-05	-0.00017	-3e-05	-1e-05	1e-05	1
2241	2e-05	0	0	-3e-05	-0.00017	-3e-05	-1e-05	1e-05	1
2242	2e-05	0	0	-3e-05	-0.00017	-3e-05	-1e-05	1e-05	1
2243	2e-05	0	0	-3e-05	-0.00017	-3e-05	-1e-05	1e-05	1
2244	2e-05	0	0	-3e-05	-0.00017	-3e-05	-1e-05	1e-05	1
2245	2e-05	0	0	-3e-05	-0.00017	-3e-05	-1e-05	1e-05	1
2246	2e-05	0	0	-3e-05	-0.00017	-3e-05	-1e-05	1e-05	1
2247	2e-05	0	0	-3e-05	-0.00017	-3e-05	-1e-05	1e-05	1
2248	2e-05	0	0	-3e-05	-0.00017	-3e-05	-1e-05	1e-05	1
2249	2e-05	0	0	-3e-05	-0.00017	-3e-05	-1e-05	1e-05	1
2250	2e-05	0	0	-3e-05	-0.00017	-3e-05	-1e-05	1e-05	1
2251	2e-05	0	0	-3e-05	-0.00017	-3e-05	-1e-05	1e-05	1
2252	2e-05	0	0	-3e-05	-0.00017	-3e-05	-1e-05	1e-05	1
2253	2e-05	0	0	-3e-05	-0.00017	-3e-05	-1e-05	1e-05	1
2254	2e-05	0	0	-3e-05	-0.00017	-3e-05	-1e-05	1e-05	1
2255	2e-05	0	0	-3e-05	-0.00017	-3e-05	-1e-05	1e-05	1
2256	2e-05	0	0	-3e-05	-0.00017	-3e-05	-1e-05	1e-05	1
2257	2e-05	0	0	-3e-05	-0.00017	-3e-05	-1e-05	1e-05	1
2258	2e-05	0	0	-3e-05	-0.00017	-3e-05	-1e-05	1e-05	1
2259	2e-05	0	0	-3e-05	-0.00017	-3e-05	-1e-05	1e-05	1
2260	2e-05	0	0	-3e-05	-0.00017	-3e-05	-1e-05	1e-05	1
2261	-3e-05	-3e-05	-3e-05	1e-05	0.00023	-1e-05	0	-2e-05	1
2262	-3e-05	-3e-05	-3e-05	1e-05	0.00023	-1e-05	0	-2e-05	1
2263	0	3e-05	5e-05	0.00014	-1e-05	-4e-05	-2e-05	-1e-05	1
2264	0	3e-05	5e-05	0.00014	-1e-05	-4e-05	-2e-05	-1e-05	1
2265	0	3e-05	5e-05	0.00014	-1e-05	-4e-05	-2e-05	-1e-05	1
2266	0	3e-05	5e-05	0.00014	-1e-05	-4e-05	-2e-05	-1e-05	1
2267	0	3e-05	5e-05	0.00014	-1e-05	-4e-05	-2e-05	-1e-05	1
2268	0	3e-05	5e-05	0.00014	-1e-05	-4e-05	-2e-05	-1e-05	1
2269	0	3e-05	5e-05	0.00014	-1e-05	-4e-05	-2e-05	-1e-05	1
2270	0	3e-05	5e-05	0.00014	-1e-05	-4e-05	-2e-05	-1e-05	1
2271	0	3e-05	5e-05	0.00014	-1e-05	-4e-05	-2e-05	-1e-05	1
2272	0	3e-05	5e-05	0.00014	-1e-05	-4e-05	-2e-05	-1e-05	1
2273	0	3e-05	5e-05	0.00014	-1e-05	-4e-05	-2e-05	-1e-05	1
2274	0	3e-05	5e-05	0.00014	-1e-05	-4e-05	-2e-05	-1e-05	1
2275	0	3e-05	5e-05	0.00014	-1e-05	-4e-05	-2e-05	-1e-05	1
2276	-1e-05	-4e-05	-3e-05	9e-05	-0.0003	-1e-05	-1e-05	-2e-05	1
2277	-1e-05	-4e-05	-3e-05	9e-05	-0.0003	-1e-05	-1e-05	-2e-05	1
2278	-0.0001	-6e-05	0	7e-05	0.00023	-1e-05	-1e-05	-5e-05	1
2279	-0.0001	-6e-05	0	7e-05	0.00023	-1e-05	-1e-05	-5e-05	1
