time	channel1	channel2	channel3	channel4	channel5	channel6	channel7	channel8	class
1	0	-8e-05	-0.00013	6e-05	1e-05	1e-05	2e-05	1e-05	0
7	0	-8e-05	-0.00013	6e-05	1e-05	1e-05	2e-05	1e-05	0
8	0	-8e-05	-0.00013	6e-05	1e-05	1e-05	2e-05	1e-05	0
9	0	-8e-05	-0.00013	6e-05	1e-05	1e-05	2e-05	1e-05	0
11	0	6e-05	-8e-05	-0.00028	-0.0002	-7e-05	-1e-05	-1e-05	0
12	0	6e-05	-8e-05	-0.00028	-0.0002	-7e-05	-1e-05	-1e-05	0
13	0	6e-05	-8e-05	-0.00028	-0.0002	-7e-05	-1e-05	-1e-05	0
14	0	6e-05	-8e-05	-0.00028	-0.0002	-7e-05	-1e-05	-1e-05	0
15	0	6e-05	-8e-05	-0.00028	-0.0002	-7e-05	-1e-05	-1e-05	0
16	0	6e-05	-8e-05	-0.00028	-0.0002	-7e-05	-1e-05	-1e-05	0
17	0	6e-05	-8e-05	-0.00028	-0.0002	-7e-05	-1e-05	-1e-05	0
18	-4e-05	2e-05	0.0004	4e-05	4e-05	1e-05	0	-2e-05	0
19	-4e-05	2e-05	0.0004	4e-05	4e-05	1e-05	0	-2e-05	0
21	-2e-05	-7e-05	-0.00026	-0.00017	0.0001	6e-05	0	-1e-05	0
22	-2e-05	-7e-05	-0.00026	-0.00017	0.0001	6e-05	0	-1e-05	0
23	-2e-05	-7e-05	-0.00026	-0.00017	0.0001	6e-05	0	-1e-05	0
24	-2e-05	-7e-05	-0.00026	-0.00017	0.0001	6e-05	0	-1e-05	0
25	-2e-05	-7e-05	-0.00026	-0.00017	0.0001	6e-05	0	-1e-05	0
26	-2e-05	-7e-05	-0.00026	-0.00017	0.0001	6e-05	0	-1e-05	0
27	-2e-05	-7e-05	-0.00026	-0.00017	0.0001	6e-05	0	-1e-05	0
28	-2e-05	-7e-05	-0.00026	-0.00017	0.0001	6e-05	0	-1e-05	0
29	-2e-05	-7e-05	-0.00026	-0.00017	0.0001	6e-05	0	-1e-05	0
30	-2e-05	-7e-05	-0.00026	-0.00017	0.0001	6e-05	0	-1e-05	0
31	-2e-05	-7e-05	-0.00026	-0.00017	0.0001	6e-05	0	-1e-05	0
32	-2e-05	-7e-05	-0.00026	-0.00017	0.0001	6e-05	0	-1e-05	0
33	-2e-05	-7e-05	-0.00026	-0.00017	0.0001	6e-05	0	-1e-05	0
34	-2e-05	-7e-05	-0.00026	-0.00017	0.0001	6e-05	0	-1e-05	0
35	-2e-05	-7e-05	-0.00026	-0.00017	0.0001	6e-05	0	-1e-05	0
42	0	2e-05	9e-05	0.00028	1e-05	-2e-05	-3e-05	0	0
43	0	2e-05	9e-05	0.00028	1e-05	-2e-05	-3e-05	0	0
44	0	2e-05	9e-05	0.00028	1e-05	-2e-05	-3e-05	0	0
45	0	2e-05	9e-05	0.00028	1e-05	-2e-05	-3e-05	0	0
46	0	2e-05	9e-05	0.00028	1e-05	-2e-05	-3e-05	0	0
47	0	2e-05	9e-05	0.00028	1e-05	-2e-05	-3e-05	0	0
48	0	2e-05	9e-05	0.00028	1e-05	-2e-05	-3e-05	0	0
49	0	2e-05	9e-05	0.00028	1e-05	-2e-05	-3e-05	0	0
50	0	2e-05	9e-05	0.00028	1e-05	-2e-05	-3e-05	0	0
51	0	2e-05	9e-05	0.00028	1e-05	-2e-05	-3e-05	0	0
52	0	2e-05	9e-05	0.00028	1e-05	-2e-05	-3e-05	0	0
53	0	2e-05	9e-05	0.00028	1e-05	-2e-05	-3e-05	0	0
54	-1e-05	-1e-05	-8e-05	-6e-05	3e-05	-1e-05	-2e-05	-2e-05	0
55	-1e-05	-1e-05	-8e-05	-6e-05	3e-05	-1e-05	-2e-05	-2e-05	0
56	-1e-05	-1e-05	-8e-05	-6e-05	3e-05	-1e-05	-2e-05	-2e-05	0
57	-1e-05	-1e-05	-8e-05	-6e-05	3e-05	-1e-05	-2e-05	-2e-05	0
58	-1e-05	-1e-05	-8e-05	-6e-05	3e-05	-1e-05	-2e-05	-2e-05	0
59	-1e-05	-1e-05	-8e-05	-6e-05	3e-05	-1e-05	-2e-05	-2e-05	0
60	-1e-05	-1e-05	-8e-05	-6e-05	3e-05	-1e-05	-2e-05	-2e-05	0
61	-1e-05	-1e-05	-8e-05	-6e-05	3e-05	-1e-05	-2e-05	-2e-05	0
62	-1e-05	-1e-05	-8e-05	-6e-05	3e-05	-1e-05	-2e-05	-2e-05	0
63	0	-3e-05	-0.00017	-1e-05	6e-05	0	-2e-05	-1e-05	0
64	0	-3e-05	-0.00017	-1e-05	6e-05	0	-2e-05	-1e-05	0
65	0	-3e-05	-0.00017	-1e-05	6e-05	0	-2e-05	-1e-05	0
66	0	-3e-05	-0.00017	-1e-05	6e-05	0	-2e-05	-1e-05	0
67	0	-3e-05	-0.00017	-1e-05	6e-05	0	-2e-05	-1e-05	0
68	0	-3e-05	-0.00017	-1e-05	6e-05	0	-2e-05	-1e-05	0
69	0	-3e-05	-0.00017	-1e-05	6e-05	0	-2e-05	-1e-05	0
70	0	-3e-05	-0.00017	-1e-05	6e-05	0	-2e-05	-1e-05	0
71	0	-3e-05	-0.00017	-1e-05	6e-05	0	-2e-05	-1e-05	0
72	0	-3e-05	-0.00017	-1e-05	6e-05	0	-2e-05	-1e-05	0
73	0	-3e-05	-0.00017	-1e-05	6e-05	0	-2e-05	-1e-05	0
74	0	-3e-05	-0.00017	-1e-05	6e-05	0	-2e-05	-1e-05	0
75	0	-3e-05	-0.00017	-1e-05	6e-05	0	-2e-05	-1e-05	0
76	0	-3e-05	-0.00017	-1e-05	6e-05	0	-2e-05	-1e-05	0
77	0	-3e-05	-0.00017	-1e-05	6e-05	0	-2e-05	-1e-05	0
78	1e-05	0	0.00019	2e-05	2e-05	0	-2e-05	-1e-05	0
79	-2e-05	-8e-05	-0.00027	6e-05	-6e-05	-4e-05	0	-2e-05	0
80	-2e-05	-8e-05	-0.00027	6e-05	-6e-05	-4e-05	0	-2e-05	0
81	-2e-05	-8e-05	-0.00027	6e-05	-6e-05	-4e-05	0	-2e-05	0
82	-2e-05	-8e-05	-0.00027	6e-05	-6e-05	-4e-05	0	-2e-05	0
83	-2e-05	-8e-05	-0.00027	6e-05	-6e-05	-4e-05	0	-2e-05	0
84	-2e-05	-8e-05	-0.00027	6e-05	-6e-05	-4e-05	0	-2e-05	0
85	-2e-05	-8e-05	-0.00027	6e-05	-6e-05	-4e-05	0	-2e-05	0
86	-2e-05	-8e-05	-0.00027	6e-05	-6e-05	-4e-05	0	-2e-05	0
88	-2e-05	-8e-05	-0.00027	6e-05	-6e-05	-4e-05	0	-2e-05	0
89	-2e-05	-8e-05	-0.00027	6e-05	-6e-05	-4e-05	0	-2e-05	0
90	-2e-05	-8e-05	-0.00027	6e-05	-6e-05	-4e-05	0	-2e-05	0
91	-2e-05	-8e-05	-0.00027	6e-05	-6e-05	-4e-05	0	-2e-05	0
92	-2e-05	-8e-05	-0.00027	6e-05	-6e-05	-4e-05	0	-2e-05	0
93	-2e-05	-8e-05	-0.00027	6e-05	-6e-05	-4e-05	0	-2e-05	0
94	-2e-05	-8e-05	-0.00027	6e-05	-6e-05	-4e-05	0	-2e-05	0
95	-2e-05	-8e-05	-0.00027	6e-05	-6e-05	-4e-05	0	-2e-05	0
96	-2e-05	-8e-05	-0.00027	6e-05	-6e-05	-4e-05	0	-2e-05	0
97	-2e-05	-8e-05	-0.00027	6e-05	-6e-05	-4e-05	0	-2e-05	0
98	-2e-05	-8e-05	-0.00027	6e-05	-6e-05	-4e-05	0	-2e-05	0
99	-2e-05	-8e-05	-0.00027	6e-05	-6e-05	-4e-05	0	-2e-05	0
100	-3e-05	-8e-05	-0.00035	-0.00058	-0.00014	-2e-05	-1e-05	0	0
101	-3e-05	-8e-05	-0.00035	-0.00058	-0.00014	-2e-05	-1e-05	0	0
102	-4e-05	-0.00016	-0.00032	-0.00011	3e-05	-1e-05	-1e-05	-2e-05	0
103	-4e-05	-0.00016	-0.00032	-0.00011	3e-05	-1e-05	-1e-05	-2e-05	0
104	-4e-05	-0.00016	-0.00032	-0.00011	3e-05	-1e-05	-1e-05	-2e-05	0
105	-4e-05	-0.00016	-0.00032	-0.00011	3e-05	-1e-05	-1e-05	-2e-05	0
106	-4e-05	-0.00016	-0.00032	-0.00011	3e-05	-1e-05	-1e-05	-2e-05	0
107	-4e-05	-0.00016	-0.00032	-0.00011	3e-05	-1e-05	-1e-05	-2e-05	0
108	-4e-05	-0.00016	-0.00032	-0.00011	3e-05	-1e-05	-1e-05	-2e-05	0
109	-4e-05	-0.00016	-0.00032	-0.00011	3e-05	-1e-05	-1e-05	-2e-05	0
110	-4e-05	-0.00016	-0.00032	-0.00011	3e-05	-1e-05	-1e-05	-2e-05	0
111	-4e-05	-0.00016	-0.00032	-0.00011	3e-05	-1e-05	-1e-05	-2e-05	0
112	-4e-05	-0.00016	-0.00032	-0.00011	3e-05	-1e-05	-1e-05	-2e-05	0
113	-4e-05	-0.00016	-0.00032	-0.00011	3e-05	-1e-05	-1e-05	-2e-05	0
114	4e-05	5e-05	-0.00034	0	3e-05	-2e-05	1e-05	0	0
115	4e-05	5e-05	-0.00034	0	3e-05	-2e-05	1e-05	0	0
116	4e-05	5e-05	-0.00034	0	3e-05	-2e-05	1e-05	0	0
117	4e-05	5e-05	-0.00034	0	3e-05	-2e-05	1e-05	0	0
118	4e-05	5e-05	-0.00034	0	3e-05	-2e-05	1e-05	0	0
119	4e-05	5e-05	-0.00034	0	3e-05	-2e-05	1e-05	0	0
120	4e-05	5e-05	-0.00034	0	3e-05	-2e-05	1e-05	0	0
121	4e-05	5e-05	-0.00034	0	3e-05	-2e-05	1e-05	0	0
122	4e-05	5e-05	-0.00034	0	3e-05	-2e-05	1e-05	0	0
123	0	4e-05	-5e-05	-6e-05	-6e-05	-3e-05	-1e-05	2e-05	0
124	0	4e-05	-5e-05	-6e-05	-6e-05	-3e-05	-1e-05	2e-05	0
125	0	4e-05	-5e-05	-6e-05	-6e-05	-3e-05	-1e-05	2e-05	0
126	0	4e-05	-5e-05	-6e-05	-6e-05	-3e-05	-1e-05	2e-05	0
127	0	4e-05	-5e-05	-6e-05	-6e-05	-3e-05	-1e-05	2e-05	0
128	0	4e-05	-5e-05	-6e-05	-6e-05	-3e-05	-1e-05	2e-05	0
129	0	4e-05	-5e-05	-6e-05	-6e-05	-3e-05	-1e-05	2e-05	0
130	0	4e-05	-5e-05	-6e-05	-6e-05	-3e-05	-1e-05	2e-05	0
131	0	4e-05	-5e-05	-6e-05	-6e-05	-3e-05	-1e-05	2e-05	0
132	0	4e-05	-5e-05	-6e-05	-6e-05	-3e-05	-1e-05	2e-05	0
133	0	4e-05	-5e-05	-6e-05	-6e-05	-3e-05	-1e-05	2e-05	0
134	0	4e-05	-5e-05	-6e-05	-6e-05	-3e-05	-1e-05	2e-05	0
135	0	4e-05	-5e-05	-6e-05	-6e-05	-3e-05	-1e-05	2e-05	0
136	0	4e-05	-5e-05	-6e-05	-6e-05	-3e-05	-1e-05	2e-05	0
139	-1e-05	3e-05	0.00044	0.00019	6e-05	2e-05	-2e-05	-1e-05	0
140	-1e-05	3e-05	0.00044	0.00019	6e-05	2e-05	-2e-05	-1e-05	0
141	-1e-05	3e-05	0.00044	0.00019	6e-05	2e-05	-2e-05	-1e-05	0
142	-1e-05	3e-05	0.00044	0.00019	6e-05	2e-05	-2e-05	-1e-05	0
143	-1e-05	3e-05	0.00044	0.00019	6e-05	2e-05	-2e-05	-1e-05	0
144	-1e-05	3e-05	0.00044	0.00019	6e-05	2e-05	-2e-05	-1e-05	0
145	-1e-05	3e-05	0.00044	0.00019	6e-05	2e-05	-2e-05	-1e-05	0
146	-1e-05	3e-05	0.00044	0.00019	6e-05	2e-05	-2e-05	-1e-05	0
147	-1e-05	3e-05	0.00044	0.00019	6e-05	2e-05	-2e-05	-1e-05	0
148	-1e-05	3e-05	0.00044	0.00019	6e-05	2e-05	-2e-05	-1e-05	0
149	-1e-05	3e-05	0.00044	0.00019	6e-05	2e-05	-2e-05	-1e-05	0
150	-1e-05	3e-05	0.00044	0.00019	6e-05	2e-05	-2e-05	-1e-05	0
151	-1e-05	3e-05	0.00044	0.00019	6e-05	2e-05	-2e-05	-1e-05	0
152	-1e-05	3e-05	0.00044	0.00019	6e-05	2e-05	-2e-05	-1e-05	0
153	-1e-05	3e-05	0.00044	0.00019	6e-05	2e-05	-2e-05	-1e-05	0
154	-1e-05	3e-05	0.00044	0.00019	6e-05	2e-05	-2e-05	-1e-05	0
155	-1e-05	3e-05	0.00044	0.00019	6e-05	2e-05	-2e-05	-1e-05	0
156	-1e-05	3e-05	0.00044	0.00019	6e-05	2e-05	-2e-05	-1e-05	0
157	-1e-05	3e-05	0.00044	0.00019	6e-05	2e-05	-2e-05	-1e-05	0
158	-1e-05	3e-05	0.00044	0.00019	6e-05	2e-05	-2e-05	-1e-05	0
159	-1e-05	3e-05	0.00044	0.00019	6e-05	2e-05	-2e-05	-1e-05	0
160	-2e-05	0	-9e-05	-2e-05	-2e-05	-1e-05	-2e-05	0	0
161	-2e-05	0	-9e-05	-2e-05	-2e-05	-1e-05	-2e-05	0	0
162	-1e-05	0	0.00017	4e-05	-1e-05	-2e-05	-3e-05	-1e-05	0
163	-1e-05	0	0.00017	4e-05	-1e-05	-2e-05	-3e-05	-1e-05	0
164	-1e-05	0	0.00017	4e-05	-1e-05	-2e-05	-3e-05	-1e-05	0
165	-1e-05	0	0.00017	4e-05	-1e-05	-2e-05	-3e-05	-1e-05	0
166	-1e-05	0	0.00017	4e-05	-1e-05	-2e-05	-3e-05	-1e-05	0
167	-1e-05	0	0.00017	4e-05	-1e-05	-2e-05	-3e-05	-1e-05	0
168	-1e-05	0	0.00017	4e-05	-1e-05	-2e-05	-3e-05	-1e-05	0
169	-1e-05	0	0.00017	4e-05	-1e-05	-2e-05	-3e-05	-1e-05	0
170	-1e-05	0	0.00017	4e-05	-1e-05	-2e-05	-3e-05	-1e-05	0
171	-1e-05	0	0.00017	4e-05	-1e-05	-2e-05	-3e-05	-1e-05	0
172	-1e-05	0	0.00017	4e-05	-1e-05	-2e-05	-3e-05	-1e-05	0
173	-1e-05	0	0.00017	4e-05	-1e-05	-2e-05	-3e-05	-1e-05	0
174	-2e-05	-0.0001	-6e-05	0.00014	-1e-05	0	1e-05	-1e-05	0
175	-2e-05	-0.0001	-6e-05	0.00014	-1e-05	0	1e-05	-1e-05	0
176	-2e-05	-0.0001	-6e-05	0.00014	-1e-05	0	1e-05	-1e-05	0
177	-2e-05	-0.0001	-6e-05	0.00014	-1e-05	0	1e-05	-1e-05	0
178	-2e-05	-0.0001	-6e-05	0.00014	-1e-05	0	1e-05	-1e-05	0
179	-2e-05	-0.0001	-6e-05	0.00014	-1e-05	0	1e-05	-1e-05	0
180	-2e-05	-0.0001	-6e-05	0.00014	-1e-05	0	1e-05	-1e-05	0
181	-2e-05	-0.0001	-6e-05	0.00014	-1e-05	0	1e-05	-1e-05	0
182	-2e-05	-0.0001	-6e-05	0.00014	-1e-05	0	1e-05	-1e-05	0
183	-2e-05	-0.00011	-5e-05	-0.0002	4e-05	1e-05	-1e-05	-1e-05	0
184	-2e-05	-0.00011	-5e-05	-0.0002	4e-05	1e-05	-1e-05	-1e-05	0
185	-2e-05	-0.00011	-5e-05	-0.0002	4e-05	1e-05	-1e-05	-1e-05	0
186	-2e-05	-0.00011	-5e-05	-0.0002	4e-05	1e-05	-1e-05	-1e-05	0
189	-2e-05	-0.00011	-5e-05	-0.0002	4e-05	1e-05	-1e-05	-1e-05	0
191	-2e-05	-0.00011	-5e-05	-0.0002	4e-05	1e-05	-1e-05	-1e-05	0
192	-2e-05	-0.00011	-5e-05	-0.0002	4e-05	1e-05	-1e-05	-1e-05	0
193	-2e-05	-0.00011	-5e-05	-0.0002	4e-05	1e-05	-1e-05	-1e-05	0
194	-2e-05	-0.00011	-5e-05	-0.0002	4e-05	1e-05	-1e-05	-1e-05	0
195	-2e-05	-0.00011	-5e-05	-0.0002	4e-05	1e-05	-1e-05	-1e-05	0
196	-2e-05	-0.00011	-5e-05	-0.0002	4e-05	1e-05	-1e-05	-1e-05	0
197	-2e-05	-0.00011	-5e-05	-0.0002	4e-05	1e-05	-1e-05	-1e-05	0
198	1e-05	0.0001	-4e-05	-9e-05	-1e-05	1e-05	1e-05	-1e-05	0
199	-2e-05	-0.00019	-9e-05	8e-05	4e-05	1e-05	-1e-05	-1e-05	0
200	1e-05	0.0001	0.00023	0.00013	-3e-05	0	-2e-05	-1e-05	0
201	1e-05	0.0001	0.00023	0.00013	-3e-05	0	-2e-05	-1e-05	0
202	1e-05	0.0001	0.00023	0.00013	-3e-05	0	-2e-05	-1e-05	0
203	1e-05	0.0001	0.00023	0.00013	-3e-05	0	-2e-05	-1e-05	0
204	1e-05	0.0001	0.00023	0.00013	-3e-05	0	-2e-05	-1e-05	0
205	1e-05	0.0001	0.00023	0.00013	-3e-05	0	-2e-05	-1e-05	0
206	1e-05	0.0001	0.00023	0.00013	-3e-05	0	-2e-05	-1e-05	0
208	1e-05	0.0001	0.00023	0.00013	-3e-05	0	-2e-05	-1e-05	0
209	1e-05	0.0001	0.00023	0.00013	-3e-05	0	-2e-05	-1e-05	0
210	1e-05	0.0001	0.00023	0.00013	-3e-05	0	-2e-05	-1e-05	0
211	1e-05	0.0001	0.00023	0.00013	-3e-05	0	-2e-05	-1e-05	0
212	1e-05	0.0001	0.00023	0.00013	-3e-05	0	-2e-05	-1e-05	0
213	1e-05	0.0001	0.00023	0.00013	-3e-05	0	-2e-05	-1e-05	0
214	1e-05	0.0001	0.00023	0.00013	-3e-05	0	-2e-05	-1e-05	0
215	1e-05	0.0001	0.00023	0.00013	-3e-05	0	-2e-05	-1e-05	0
216	1e-05	0.0001	0.00023	0.00013	-3e-05	0	-2e-05	-1e-05	0
217	1e-05	0.0001	0.00023	0.00013	-3e-05	0	-2e-05	-1e-05	0
218	1e-05	0.0001	0.00023	0.00013	-3e-05	0	-2e-05	-1e-05	0
219	1e-05	0.0001	0.00023	0.00013	-3e-05	0	-2e-05	-1e-05	0
220	0	-1e-05	0.00014	9e-05	-2e-05	-5e-05	-2e-05	-1e-05	0
221	0	-1e-05	0.00014	9e-05	-2e-05	-5e-05	-2e-05	-1e-05	0
222	0	-1e-05	0.00014	9e-05	-2e-05	-5e-05	-2e-05	-1e-05	0
223	-1e-05	4e-05	-0.00012	5e-05	-2e-05	-2e-05	0	-2e-05	0
224	-1e-05	4e-05	-0.00012	5e-05	-2e-05	-2e-05	0	-2e-05	0
225	-1e-05	4e-05	-0.00012	5e-05	-2e-05	-2e-05	0	-2e-05	0
226	-1e-05	4e-05	-0.00012	5e-05	-2e-05	-2e-05	0	-2e-05	0
227	-1e-05	4e-05	-0.00012	5e-05	-2e-05	-2e-05	0	-2e-05	0
228	-1e-05	4e-05	-0.00012	5e-05	-2e-05	-2e-05	0	-2e-05	0
229	-1e-05	4e-05	-0.00012	5e-05	-2e-05	-2e-05	0	-2e-05	0
230	-1e-05	4e-05	-0.00012	5e-05	-2e-05	-2e-05	0	-2e-05	0
231	-1e-05	4e-05	-0.00012	5e-05	-2e-05	-2e-05	0	-2e-05	0
232	-1e-05	4e-05	-0.00012	5e-05	-2e-05	-2e-05	0	-2e-05	0
233	-1e-05	4e-05	-0.00012	5e-05	-2e-05	-2e-05	0	-2e-05	0
234	4e-05	4e-05	-0.0002	-1e-05	-4e-05	-5e-05	-1e-05	2e-05	0
235	4e-05	4e-05	-0.0002	-1e-05	-4e-05	-5e-05	-1e-05	2e-05	0
236	4e-05	4e-05	-0.0002	-1e-05	-4e-05	-5e-05	-1e-05	2e-05	0
239	4e-05	4e-05	-0.0002	-1e-05	-4e-05	-5e-05	-1e-05	2e-05	0
240	4e-05	4e-05	-0.0002	-1e-05	-4e-05	-5e-05	-1e-05	2e-05	0
241	4e-05	4e-05	-0.0002	-1e-05	-4e-05	-5e-05	-1e-05	2e-05	0
242	4e-05	4e-05	-0.0002	-1e-05	-4e-05	-5e-05	-1e-05	2e-05	0
243	-1e-05	-1e-05	5e-05	-7e-05	3e-05	1e-05	-2e-05	-2e-05	0
244	-1e-05	-1e-05	5e-05	-7e-05	3e-05	1e-05	-2e-05	-2e-05	0
245	-1e-05	-1e-05	5e-05	-7e-05	3e-05	1e-05	-2e-05	-2e-05	0
246	-1e-05	-1e-05	5e-05	-7e-05	3e-05	1e-05	-2e-05	-2e-05	0
247	-1e-05	-1e-05	5e-05	-7e-05	3e-05	1e-05	-2e-05	-2e-05	0
248	-1e-05	-1e-05	5e-05	-7e-05	3e-05	1e-05	-2e-05	-2e-05	0
249	-1e-05	-1e-05	5e-05	-7e-05	3e-05	1e-05	-2e-05	-2e-05	0
250	-1e-05	-1e-05	5e-05	-7e-05	3e-05	1e-05	-2e-05	-2e-05	0
251	-1e-05	-1e-05	5e-05	-7e-05	3e-05	1e-05	-2e-05	-2e-05	0
252	-1e-05	-1e-05	5e-05	-7e-05	3e-05	1e-05	-2e-05	-2e-05	0
253	-1e-05	-1e-05	5e-05	-7e-05	3e-05	1e-05	-2e-05	-2e-05	0
254	-1e-05	-1e-05	5e-05	-7e-05	3e-05	1e-05	-2e-05	-2e-05	0
255	-1e-05	-1e-05	5e-05	-7e-05	3e-05	1e-05	-2e-05	-2e-05	0
256	-1e-05	-1e-05	5e-05	-7e-05	3e-05	1e-05	-2e-05	-2e-05	0
257	-1e-05	-1e-05	5e-05	-7e-05	3e-05	1e-05	-2e-05	-2e-05	0
258	-3e-05	6e-05	7e-05	-0.00025	-4e-05	0	-2e-05	-2e-05	0
259	-1e-05	-6e-05	3e-05	4e-05	3e-05	-3e-05	0	0	0
260	0	4e-05	0.00031	0.00011	1e-05	-1e-05	0	0	0
261	0	4e-05	0.00031	0.00011	1e-05	-1e-05	0	0	0
262	0	4e-05	0.00031	0.00011	1e-05	-1e-05	0	0	0
263	0	4e-05	0.00031	0.00011	1e-05	-1e-05	0	0	0
264	0	4e-05	0.00031	0.00011	1e-05	-1e-05	0	0	0
265	0	4e-05	0.00031	0.00011	1e-05	-1e-05	0	0	0
266	0	4e-05	0.00031	0.00011	1e-05	-1e-05	0	0	0
267	0	4e-05	0.00031	0.00011	1e-05	-1e-05	0	0	0
268	0	4e-05	0.00031	0.00011	1e-05	-1e-05	0	0	0
269	0	4e-05	0.00031	0.00011	1e-05	-1e-05	0	0	0
270	0	4e-05	0.00031	0.00011	1e-05	-1e-05	0	0	0
271	0	4e-05	0.00031	0.00011	1e-05	-1e-05	0	0	0
272	0	4e-05	0.00031	0.00011	1e-05	-1e-05	0	0	0
273	0	4e-05	0.00031	0.00011	1e-05	-1e-05	0	0	0
274	0	4e-05	0.00031	0.00011	1e-05	-1e-05	0	0	0
275	0	4e-05	0.00031	0.00011	1e-05	-1e-05	0	0	0
276	0	4e-05	0.00031	0.00011	1e-05	-1e-05	0	0	0
277	0	4e-05	0.00031	0.00011	1e-05	-1e-05	0	0	0
278	0	4e-05	0.00031	0.00011	1e-05	-1e-05	0	0	0
279	0	4e-05	0.00031	0.00011	1e-05	-1e-05	0	0	0
280	1e-05	-2e-05	-0.00014	-0.00031	-2e-05	1e-05	2e-05	1e-05	0
281	1e-05	-2e-05	-0.00014	-0.00031	-2e-05	1e-05	2e-05	1e-05	0
282	-1e-05	1e-05	-0.00018	0.00018	7e-05	-1e-05	0	-2e-05	0
283	-1e-05	1e-05	-0.00018	0.00018	7e-05	-1e-05	0	-2e-05	0
284	-1e-05	1e-05	-0.00018	0.00018	7e-05	-1e-05	0	-2e-05	0
285	-1e-05	1e-05	-0.00018	0.00018	7e-05	-1e-05	0	-2e-05	0
287	-1e-05	1e-05	-0.00018	0.00018	7e-05	-1e-05	0	-2e-05	0
290	-1e-05	1e-05	-0.00018	0.00018	7e-05	-1e-05	0	-2e-05	0
291	-1e-05	1e-05	-0.00018	0.00018	7e-05	-1e-05	0	-2e-05	0
292	-1e-05	1e-05	-0.00018	0.00018	7e-05	-1e-05	0	-2e-05	0
293	-1e-05	1e-05	-0.00018	0.00018	7e-05	-1e-05	0	-2e-05	0
294	1e-05	5e-05	-4e-05	-0.00015	2e-05	1e-05	-1e-05	1e-05	0
295	1e-05	5e-05	-4e-05	-0.00015	2e-05	1e-05	-1e-05	1e-05	0
296	1e-05	5e-05	-4e-05	-0.00015	2e-05	1e-05	-1e-05	1e-05	0
297	1e-05	5e-05	-4e-05	-0.00015	2e-05	1e-05	-1e-05	1e-05	0
298	1e-05	5e-05	-4e-05	-0.00015	2e-05	1e-05	-1e-05	1e-05	0
299	1e-05	5e-05	-4e-05	-0.00015	2e-05	1e-05	-1e-05	1e-05	0
300	1e-05	5e-05	-4e-05	-0.00015	2e-05	1e-05	-1e-05	1e-05	0
301	1e-05	5e-05	-4e-05	-0.00015	2e-05	1e-05	-1e-05	1e-05	0
304	1e-05	5e-05	-4e-05	-0.00015	2e-05	1e-05	-1e-05	1e-05	0
305	1e-05	5e-05	-4e-05	-0.00015	2e-05	1e-05	-1e-05	1e-05	0
306	3e-05	-0.0002	0.00013	2e-05	-5e-05	-1e-05	1e-05	1e-05	0
307	3e-05	-0.0002	0.00013	2e-05	-5e-05	-1e-05	1e-05	1e-05	0
308	3e-05	-0.0002	0.00013	2e-05	-5e-05	-1e-05	1e-05	1e-05	0
309	3e-05	-0.0002	0.00013	2e-05	-5e-05	-1e-05	1e-05	1e-05	0
310	3e-05	-0.0002	0.00013	2e-05	-5e-05	-1e-05	1e-05	1e-05	0
311	3e-05	-0.0002	0.00013	2e-05	-5e-05	-1e-05	1e-05	1e-05	0
312	3e-05	-0.0002	0.00013	2e-05	-5e-05	-1e-05	1e-05	1e-05	0
313	3e-05	-0.0002	0.00013	2e-05	-5e-05	-1e-05	1e-05	1e-05	0
314	3e-05	-0.0002	0.00013	2e-05	-5e-05	-1e-05	1e-05	1e-05	0
315	3e-05	-0.0002	0.00013	2e-05	-5e-05	-1e-05	1e-05	1e-05	0
316	3e-05	-0.0002	0.00013	2e-05	-5e-05	-1e-05	1e-05	1e-05	0
317	3e-05	-0.0002	0.00013	2e-05	-5e-05	-1e-05	1e-05	1e-05	0
318	-6e-05	-2e-05	-0.00045	0.00015	1e-05	-3e-05	-1e-05	-3e-05	0
319	1e-05	7e-05	-0.0001	-0.00012	7e-05	5e-05	0	-2e-05	0
320	0	8e-05	-0.0001	-6e-05	-0.00013	-8e-05	-6e-05	-1e-05	0
321	0	8e-05	-0.0001	-6e-05	-0.00013	-8e-05	-6e-05	-1e-05	0
322	0	8e-05	-0.0001	-6e-05	-0.00013	-8e-05	-6e-05	-1e-05	0
323	0	8e-05	-0.0001	-6e-05	-0.00013	-8e-05	-6e-05	-1e-05	0
324	0	8e-05	-0.0001	-6e-05	-0.00013	-8e-05	-6e-05	-1e-05	0
325	0	8e-05	-0.0001	-6e-05	-0.00013	-8e-05	-6e-05	-1e-05	0
326	0	8e-05	-0.0001	-6e-05	-0.00013	-8e-05	-6e-05	-1e-05	0
327	0	8e-05	-0.0001	-6e-05	-0.00013	-8e-05	-6e-05	-1e-05	0
328	0	8e-05	-0.0001	-6e-05	-0.00013	-8e-05	-6e-05	-1e-05	0
329	0	8e-05	-0.0001	-6e-05	-0.00013	-8e-05	-6e-05	-1e-05	0
330	0	8e-05	-0.0001	-6e-05	-0.00013	-8e-05	-6e-05	-1e-05	0
331	0	8e-05	-0.0001	-6e-05	-0.00013	-8e-05	-6e-05	-1e-05	0
332	0	8e-05	-0.0001	-6e-05	-0.00013	-8e-05	-6e-05	-1e-05	0
333	0	8e-05	-0.0001	-6e-05	-0.00013	-8e-05	-6e-05	-1e-05	0
334	0	8e-05	-0.0001	-6e-05	-0.00013	-8e-05	-6e-05	-1e-05	0
335	0	8e-05	-0.0001	-6e-05	-0.00013	-8e-05	-6e-05	-1e-05	0
336	0	8e-05	-0.0001	-6e-05	-0.00013	-8e-05	-6e-05	-1e-05	0
339	0	8e-05	-0.0001	-6e-05	-0.00013	-8e-05	-6e-05	-1e-05	0
340	-1e-05	-0.00014	0.00022	0.0001	5e-05	3e-05	3e-05	0	0
341	-3e-05	-0.00013	-0.00015	-0.00012	-4e-05	1e-05	-4e-05	-2e-05	0
342	-3e-05	-0.0001	-0.00018	-9e-05	1e-05	2e-05	2e-05	-1e-05	0
343	-3e-05	-0.0001	-0.00018	-9e-05	1e-05	2e-05	2e-05	-1e-05	0
344	-3e-05	-0.0001	-0.00018	-9e-05	1e-05	2e-05	2e-05	-1e-05	0
345	-3e-05	-0.0001	-0.00018	-9e-05	1e-05	2e-05	2e-05	-1e-05	0
346	-3e-05	-0.0001	-0.00018	-9e-05	1e-05	2e-05	2e-05	-1e-05	0
347	-3e-05	-0.0001	-0.00018	-9e-05	1e-05	2e-05	2e-05	-1e-05	0
348	-3e-05	-0.0001	-0.00018	-9e-05	1e-05	2e-05	2e-05	-1e-05	0
349	-3e-05	-0.0001	-0.00018	-9e-05	1e-05	2e-05	2e-05	-1e-05	0
350	-3e-05	-0.0001	-0.00018	-9e-05	1e-05	2e-05	2e-05	-1e-05	0
351	-3e-05	-0.0001	-0.00018	-9e-05	1e-05	2e-05	2e-05	-1e-05	0
352	-3e-05	-0.0001	-0.00018	-9e-05	1e-05	2e-05	2e-05	-1e-05	0
353	-3e-05	-0.0001	-0.00018	-9e-05	1e-05	2e-05	2e-05	-1e-05	0
354	-3e-05	-0.00013	-7e-05	-0.00033	-7e-05	0	0	-2e-05	0
355	-4e-05	-2e-05	0.00036	0.00052	3e-05	-3e-05	-3e-05	-3e-05	0
356	-4e-05	-2e-05	0.00036	0.00052	3e-05	-3e-05	-3e-05	-3e-05	0
357	-4e-05	-2e-05	0.00036	0.00052	3e-05	-3e-05	-3e-05	-3e-05	0
358	-4e-05	-2e-05	0.00036	0.00052	3e-05	-3e-05	-3e-05	-3e-05	0
359	-4e-05	-2e-05	0.00036	0.00052	3e-05	-3e-05	-3e-05	-3e-05	0
360	-4e-05	-2e-05	0.00036	0.00052	3e-05	-3e-05	-3e-05	-3e-05	0
361	-4e-05	-2e-05	0.00036	0.00052	3e-05	-3e-05	-3e-05	-3e-05	0
362	-4e-05	-2e-05	0.00036	0.00052	3e-05	-3e-05	-3e-05	-3e-05	0
363	-1e-05	1e-05	-0.00017	5e-05	-2e-05	-1e-05	-5e-05	-1e-05	0
364	-1e-05	1e-05	-0.00017	5e-05	-2e-05	-1e-05	-5e-05	-1e-05	0
365	-1e-05	1e-05	-0.00017	5e-05	-2e-05	-1e-05	-5e-05	-1e-05	0
366	-1e-05	1e-05	-0.00017	5e-05	-2e-05	-1e-05	-5e-05	-1e-05	0
367	-1e-05	1e-05	-0.00017	5e-05	-2e-05	-1e-05	-5e-05	-1e-05	0
368	-1e-05	1e-05	-0.00017	5e-05	-2e-05	-1e-05	-5e-05	-1e-05	0
369	-1e-05	1e-05	-0.00017	5e-05	-2e-05	-1e-05	-5e-05	-1e-05	0
370	-1e-05	1e-05	-0.00017	5e-05	-2e-05	-1e-05	-5e-05	-1e-05	0
371	-1e-05	1e-05	-0.00017	5e-05	-2e-05	-1e-05	-5e-05	-1e-05	0
372	-1e-05	1e-05	-0.00017	5e-05	-2e-05	-1e-05	-5e-05	-1e-05	0
373	-1e-05	1e-05	-0.00017	5e-05	-2e-05	-1e-05	-5e-05	-1e-05	0
374	-1e-05	1e-05	-0.00017	5e-05	-2e-05	-1e-05	-5e-05	-1e-05	0
375	-1e-05	1e-05	-0.00017	5e-05	-2e-05	-1e-05	-5e-05	-1e-05	0
376	-1e-05	1e-05	-0.00017	5e-05	-2e-05	-1e-05	-5e-05	-1e-05	0
377	-1e-05	1e-05	-0.00017	5e-05	-2e-05	-1e-05	-5e-05	-1e-05	0
378	-1e-05	1e-05	0.00028	0.00039	9e-05	0	-2e-05	-1e-05	0
379	-1e-05	0.00018	8e-05	-2e-05	9e-05	3e-05	1e-05	1e-05	0
380	-1e-05	0.00018	8e-05	-2e-05	9e-05	3e-05	1e-05	1e-05	0
381	-1e-05	0.00018	8e-05	-2e-05	9e-05	3e-05	1e-05	1e-05	0
382	-1e-05	0.00018	8e-05	-2e-05	9e-05	3e-05	1e-05	1e-05	0
384	-1e-05	0.00018	8e-05	-2e-05	9e-05	3e-05	1e-05	1e-05	0
385	-1e-05	0.00018	8e-05	-2e-05	9e-05	3e-05	1e-05	1e-05	0
386	-1e-05	0.00018	8e-05	-2e-05	9e-05	3e-05	1e-05	1e-05	0
390	-1e-05	0.00018	8e-05	-2e-05	9e-05	3e-05	1e-05	1e-05	0
392	-1e-05	0.00018	8e-05	-2e-05	9e-05	3e-05	1e-05	1e-05	0
393	-1e-05	0.00018	8e-05	-2e-05	9e-05	3e-05	1e-05	1e-05	0
394	-1e-05	0.00018	8e-05	-2e-05	9e-05	3e-05	1e-05	1e-05	0
395	-1e-05	0.00018	8e-05	-2e-05	9e-05	3e-05	1e-05	1e-05	0
396	-1e-05	0.00018	8e-05	-2e-05	9e-05	3e-05	1e-05	1e-05	0
397	-1e-05	0.00018	8e-05	-2e-05	9e-05	3e-05	1e-05	1e-05	0
398	-1e-05	0.00018	8e-05	-2e-05	9e-05	3e-05	1e-05	1e-05	0
399	-1e-05	0.00018	8e-05	-2e-05	9e-05	3e-05	1e-05	1e-05	0
400	7e-05	0.00015	0.00039	0.00039	8e-05	3e-05	0	5e-05	0
401	-5e-05	-0.00017	-0.00076	-0.00049	-7e-05	-3e-05	0	-3e-05	0
402	-1e-05	-5e-05	-9e-05	-0.00018	-4e-05	-2e-05	-1e-05	-1e-05	0
403	-1e-05	-5e-05	-9e-05	-0.00018	-4e-05	-2e-05	-1e-05	-1e-05	0
404	-1e-05	-5e-05	-9e-05	-0.00018	-4e-05	-2e-05	-1e-05	-1e-05	0
405	-1e-05	-5e-05	-9e-05	-0.00018	-4e-05	-2e-05	-1e-05	-1e-05	0
406	-1e-05	-5e-05	-9e-05	-0.00018	-4e-05	-2e-05	-1e-05	-1e-05	0
407	-1e-05	-5e-05	-9e-05	-0.00018	-4e-05	-2e-05	-1e-05	-1e-05	0
408	-1e-05	-5e-05	-9e-05	-0.00018	-4e-05	-2e-05	-1e-05	-1e-05	0
409	-1e-05	-5e-05	-9e-05	-0.00018	-4e-05	-2e-05	-1e-05	-1e-05	0
410	-1e-05	-5e-05	-9e-05	-0.00018	-4e-05	-2e-05	-1e-05	-1e-05	0
411	-1e-05	-5e-05	-9e-05	-0.00018	-4e-05	-2e-05	-1e-05	-1e-05	0
412	-1e-05	-5e-05	-9e-05	-0.00018	-4e-05	-2e-05	-1e-05	-1e-05	0
413	-1e-05	-5e-05	-9e-05	-0.00018	-4e-05	-2e-05	-1e-05	-1e-05	0
414	0	-0.00021	0.00032	7e-05	-4e-05	-3e-05	-2e-05	-1e-05	0
415	2e-05	-0.00019	9e-05	-1e-05	4e-05	6e-05	2e-05	-2e-05	0
416	2e-05	-0.00019	9e-05	-1e-05	4e-05	6e-05	2e-05	-2e-05	0
417	2e-05	-0.00019	9e-05	-1e-05	4e-05	6e-05	2e-05	-2e-05	0
418	2e-05	-0.00019	9e-05	-1e-05	4e-05	6e-05	2e-05	-2e-05	0
419	2e-05	-0.00019	9e-05	-1e-05	4e-05	6e-05	2e-05	-2e-05	0
420	2e-05	-0.00019	9e-05	-1e-05	4e-05	6e-05	2e-05	-2e-05	0
421	2e-05	-0.00019	9e-05	-1e-05	4e-05	6e-05	2e-05	-2e-05	0
423	2e-05	-0.00019	9e-05	-1e-05	4e-05	6e-05	2e-05	-2e-05	0
424	2e-05	-0.00019	9e-05	-1e-05	4e-05	6e-05	2e-05	-2e-05	0
425	2e-05	-0.00019	9e-05	-1e-05	4e-05	6e-05	2e-05	-2e-05	0
426	2e-05	-0.00019	9e-05	-1e-05	4e-05	6e-05	2e-05	-2e-05	0
427	2e-05	-0.00019	9e-05	-1e-05	4e-05	6e-05	2e-05	-2e-05	0
428	2e-05	-0.00019	9e-05	-1e-05	4e-05	6e-05	2e-05	-2e-05	0
429	2e-05	-0.00019	9e-05	-1e-05	4e-05	6e-05	2e-05	-2e-05	0
430	2e-05	-0.00019	9e-05	-1e-05	4e-05	6e-05	2e-05	-2e-05	0
432	3e-05	8e-05	0.00022	0.00054	2e-05	-2e-05	-1e-05	0	0
433	3e-05	8e-05	0.00022	0.00054	2e-05	-2e-05	-1e-05	0	0
434	3e-05	8e-05	0.00022	0.00054	2e-05	-2e-05	-1e-05	0	0
435	3e-05	8e-05	0.00022	0.00054	2e-05	-2e-05	-1e-05	0	0
436	3e-05	8e-05	0.00022	0.00054	2e-05	-2e-05	-1e-05	0	0
441	1e-05	8e-05	9e-05	-0.00015	-6e-05	-3e-05	-2e-05	-1e-05	0
442	1e-05	8e-05	9e-05	-0.00015	-6e-05	-3e-05	-2e-05	-1e-05	0
443	1e-05	8e-05	9e-05	-0.00015	-6e-05	-3e-05	-2e-05	-1e-05	0
444	-2e-05	0.00022	0.00039	-9e-05	-3e-05	-2e-05	0	-2e-05	0
445	-2e-05	0.00022	0.00039	-9e-05	-3e-05	-2e-05	0	-2e-05	0
446	-2e-05	0.00022	0.00039	-9e-05	-3e-05	-2e-05	0	-2e-05	0
447	-2e-05	0.00022	0.00039	-9e-05	-3e-05	-2e-05	0	-2e-05	0
448	-2e-05	0.00022	0.00039	-9e-05	-3e-05	-2e-05	0	-2e-05	0
449	-2e-05	0.00022	0.00039	-9e-05	-3e-05	-2e-05	0	-2e-05	0
450	-2e-05	0.00022	0.00039	-9e-05	-3e-05	-2e-05	0	-2e-05	0
451	-2e-05	0.00022	0.00039	-9e-05	-3e-05	-2e-05	0	-2e-05	0
452	-2e-05	0.00022	0.00039	-9e-05	-3e-05	-2e-05	0	-2e-05	0
453	-2e-05	0.00022	0.00039	-9e-05	-3e-05	-2e-05	0	-2e-05	0
454	-2e-05	0.00022	0.00039	-9e-05	-3e-05	-2e-05	0	-2e-05	0
457	-2e-05	0.00022	0.00039	-9e-05	-3e-05	-2e-05	0	-2e-05	0
458	-2e-05	0.00022	0.00039	-9e-05	-3e-05	-2e-05	0	-2e-05	0
459	-2e-05	0.00022	0.00039	-9e-05	-3e-05	-2e-05	0	-2e-05	0
460	-1e-05	8e-05	-0.00026	0.00015	3e-05	-2e-05	0	-2e-05	0
461	2e-05	0.0001	0.00031	0.00027	1e-05	1e-05	-1e-05	0	0
462	-1e-05	-2e-05	-6e-05	-7e-05	0	-3e-05	-2e-05	-1e-05	0
463	-1e-05	-2e-05	-6e-05	-7e-05	0	-3e-05	-2e-05	-1e-05	0
464	-1e-05	-2e-05	-6e-05	-7e-05	0	-3e-05	-2e-05	-1e-05	0
465	-1e-05	-2e-05	-6e-05	-7e-05	0	-3e-05	-2e-05	-1e-05	0
466	-1e-05	-2e-05	-6e-05	-7e-05	0	-3e-05	-2e-05	-1e-05	0
467	-1e-05	-2e-05	-6e-05	-7e-05	0	-3e-05	-2e-05	-1e-05	0
468	-1e-05	-2e-05	-6e-05	-7e-05	0	-3e-05	-2e-05	-1e-05	0
469	-1e-05	-2e-05	-6e-05	-7e-05	0	-3e-05	-2e-05	-1e-05	0
470	-1e-05	-2e-05	-6e-05	-7e-05	0	-3e-05	-2e-05	-1e-05	0
471	-1e-05	-2e-05	-6e-05	-7e-05	0	-3e-05	-2e-05	-1e-05	0
472	-1e-05	-2e-05	-6e-05	-7e-05	0	-3e-05	-2e-05	-1e-05	0
473	-1e-05	-2e-05	-6e-05	-7e-05	0	-3e-05	-2e-05	-1e-05	0
474	-7e-05	-2e-05	0.0002	0.00021	3e-05	-3e-05	-5e-05	-2e-05	0
475	-7e-05	-2e-05	0.0002	0.00021	3e-05	-3e-05	-5e-05	-2e-05	0
476	-7e-05	-2e-05	0.0002	0.00021	3e-05	-3e-05	-5e-05	-2e-05	0
477	-7e-05	-2e-05	0.0002	0.00021	3e-05	-3e-05	-5e-05	-2e-05	0
478	-7e-05	-2e-05	0.0002	0.00021	3e-05	-3e-05	-5e-05	-2e-05	0
479	-7e-05	-2e-05	0.0002	0.00021	3e-05	-3e-05	-5e-05	-2e-05	0
480	-7e-05	-2e-05	0.0002	0.00021	3e-05	-3e-05	-5e-05	-2e-05	0
481	-7e-05	-2e-05	0.0002	0.00021	3e-05	-3e-05	-5e-05	-2e-05	0
482	4e-05	0.00013	0.00042	0	-4e-05	-2e-05	0	3e-05	0
483	-5e-05	-0.00018	-0.0006	-0.00029	-2e-05	-3e-05	-2e-05	-2e-05	0
484	-5e-05	-0.00018	-0.0006	-0.00029	-2e-05	-3e-05	-2e-05	-2e-05	0
485	-5e-05	-0.00018	-0.0006	-0.00029	-2e-05	-3e-05	-2e-05	-2e-05	0
488	-5e-05	-0.00018	-0.0006	-0.00029	-2e-05	-3e-05	-2e-05	-2e-05	0
492	-5e-05	-0.00018	-0.0006	-0.00029	-2e-05	-3e-05	-2e-05	-2e-05	0
494	-5e-05	-0.00018	-0.0006	-0.00029	-2e-05	-3e-05	-2e-05	-2e-05	0
495	-5e-05	-0.00018	-0.0006	-0.00029	-2e-05	-3e-05	-2e-05	-2e-05	0
496	-5e-05	-0.00018	-0.0006	-0.00029	-2e-05	-3e-05	-2e-05	-2e-05	0
497	-5e-05	-0.00018	-0.0006	-0.00029	-2e-05	-3e-05	-2e-05	-2e-05	0
498	4e-05	7e-05	0.0002	-0.00018	-7e-05	4e-05	5e-05	3e-05	0
499	4e-05	7e-05	0.0002	-0.00018	-7e-05	4e-05	5e-05	3e-05	0
500	4e-05	7e-05	0.0002	-0.00018	-7e-05	4e-05	5e-05	3e-05	0
501	4e-05	7e-05	0.0002	-0.00018	-7e-05	4e-05	5e-05	3e-05	0
502	4e-05	7e-05	0.0002	-0.00018	-7e-05	4e-05	5e-05	3e-05	0
503	4e-05	7e-05	0.0002	-0.00018	-7e-05	4e-05	5e-05	3e-05	0
504	4e-05	7e-05	0.0002	-0.00018	-7e-05	4e-05	5e-05	3e-05	0
505	4e-05	7e-05	0.0002	-0.00018	-7e-05	4e-05	5e-05	3e-05	0
506	-3e-05	-5e-05	-0.00019	-0.00012	2e-05	2e-05	-2e-05	-2e-05	0
507	-3e-05	-5e-05	-0.00019	-0.00012	2e-05	2e-05	-2e-05	-2e-05	0
508	-3e-05	-5e-05	-0.00019	-0.00012	2e-05	2e-05	-2e-05	-2e-05	0
509	-3e-05	-5e-05	-0.00019	-0.00012	2e-05	2e-05	-2e-05	-2e-05	0
510	-3e-05	-5e-05	-0.00019	-0.00012	2e-05	2e-05	-2e-05	-2e-05	0
511	-3e-05	-5e-05	-0.00019	-0.00012	2e-05	2e-05	-2e-05	-2e-05	0
512	-3e-05	-5e-05	-0.00019	-0.00012	2e-05	2e-05	-2e-05	-2e-05	0
513	-3e-05	-5e-05	-0.00019	-0.00012	2e-05	2e-05	-2e-05	-2e-05	0
514	-3e-05	-5e-05	-0.00019	-0.00012	2e-05	2e-05	-2e-05	-2e-05	0
515	-3e-05	-5e-05	-0.00019	-0.00012	2e-05	2e-05	-2e-05	-2e-05	0
516	-3e-05	-5e-05	-0.00019	-0.00012	2e-05	2e-05	-2e-05	-2e-05	0
517	-3e-05	-5e-05	-0.00019	-0.00012	2e-05	2e-05	-2e-05	-2e-05	0
518	-3e-05	-5e-05	-0.00019	-0.00012	2e-05	2e-05	-2e-05	-2e-05	0
519	-3e-05	-5e-05	-0.00019	-0.00012	2e-05	2e-05	-2e-05	-2e-05	0
520	-5e-05	-3e-05	-0.0001	-0.00041	-0.00014	-0.0001	-4e-05	-2e-05	0
523	-5e-05	-3e-05	-0.0001	-0.00041	-0.00014	-0.0001	-4e-05	-2e-05	0
524	0	-2e-05	-4e-05	0	9e-05	2e-05	2e-05	1e-05	0
525	0	-2e-05	-4e-05	0	9e-05	2e-05	2e-05	1e-05	0
526	0	-2e-05	-4e-05	0	9e-05	2e-05	2e-05	1e-05	0
527	0	-2e-05	-4e-05	0	9e-05	2e-05	2e-05	1e-05	0
528	0	-2e-05	-4e-05	0	9e-05	2e-05	2e-05	1e-05	0
529	0	-2e-05	-4e-05	0	9e-05	2e-05	2e-05	1e-05	0
530	0	-2e-05	-4e-05	0	9e-05	2e-05	2e-05	1e-05	0
531	0	-2e-05	-4e-05	0	9e-05	2e-05	2e-05	1e-05	0
532	0	-2e-05	-4e-05	0	9e-05	2e-05	2e-05	1e-05	0
533	0	-2e-05	-4e-05	0	9e-05	2e-05	2e-05	1e-05	0
535	0	-2e-05	-4e-05	0	9e-05	2e-05	2e-05	1e-05	0
536	0	-2e-05	-4e-05	0	9e-05	2e-05	2e-05	1e-05	0
539	0	-2e-05	-4e-05	0	9e-05	2e-05	2e-05	1e-05	0
540	0	-2e-05	-4e-05	0	9e-05	2e-05	2e-05	1e-05	0
541	0	-2e-05	-4e-05	0	9e-05	2e-05	2e-05	1e-05	0
542	0	-2e-05	-4e-05	0	9e-05	2e-05	2e-05	1e-05	0
543	-6e-05	-3e-05	0.00014	-1e-05	-5e-05	-5e-05	-4e-05	-4e-05	0
544	-7e-05	-0.00015	-0.00034	-0.0002	-7e-05	-0.00012	-5e-05	-5e-05	0
545	1e-05	0	-1e-05	-8e-05	-0.00013	1e-05	2e-05	2e-05	0
546	1e-05	0	-1e-05	-8e-05	-0.00013	1e-05	2e-05	2e-05	0
547	1e-05	0	-1e-05	-8e-05	-0.00013	1e-05	2e-05	2e-05	0
548	1e-05	0	-1e-05	-8e-05	-0.00013	1e-05	2e-05	2e-05	0
549	1e-05	0	-1e-05	-8e-05	-0.00013	1e-05	2e-05	2e-05	0
550	1e-05	0	-1e-05	-8e-05	-0.00013	1e-05	2e-05	2e-05	0
551	1e-05	0	-1e-05	-8e-05	-0.00013	1e-05	2e-05	2e-05	0
552	1e-05	0	-1e-05	-8e-05	-0.00013	1e-05	2e-05	2e-05	0
553	1e-05	0	-1e-05	-8e-05	-0.00013	1e-05	2e-05	2e-05	0
554	1e-05	0	-1e-05	-8e-05	-0.00013	1e-05	2e-05	2e-05	0
555	1e-05	0	-1e-05	-8e-05	-0.00013	1e-05	2e-05	2e-05	0
556	1e-05	0	-1e-05	-8e-05	-0.00013	1e-05	2e-05	2e-05	0
557	2e-05	3e-05	-6e-05	-0.00023	-3e-05	0.0001	1e-05	-1e-05	0
558	2e-05	3e-05	-6e-05	-0.00023	-3e-05	0.0001	1e-05	-1e-05	0
559	2e-05	3e-05	-6e-05	-0.00023	-3e-05	0.0001	1e-05	-1e-05	0
560	2e-05	3e-05	-6e-05	-0.00023	-3e-05	0.0001	1e-05	-1e-05	0
561	2e-05	3e-05	-6e-05	-0.00023	-3e-05	0.0001	1e-05	-1e-05	0
562	2e-05	3e-05	-6e-05	-0.00023	-3e-05	0.0001	1e-05	-1e-05	0
563	2e-05	3e-05	-6e-05	-0.00023	-3e-05	0.0001	1e-05	-1e-05	0
564	4e-05	7e-05	0.00023	0.00034	0.00023	0.0001	5e-05	0	0
565	4e-05	7e-05	0.00023	0.00034	0.00023	0.0001	5e-05	0	0
566	4e-05	7e-05	0.00023	0.00034	0.00023	0.0001	5e-05	0	0
567	4e-05	7e-05	0.00023	0.00034	0.00023	0.0001	5e-05	0	0
568	4e-05	7e-05	0.00023	0.00034	0.00023	0.0001	5e-05	0	0
569	4e-05	7e-05	0.00023	0.00034	0.00023	0.0001	5e-05	0	0
570	4e-05	7e-05	0.00023	0.00034	0.00023	0.0001	5e-05	0	0
571	4e-05	7e-05	0.00023	0.00034	0.00023	0.0001	5e-05	0	0
572	4e-05	7e-05	0.00023	0.00034	0.00023	0.0001	5e-05	0	0
573	4e-05	7e-05	0.00023	0.00034	0.00023	0.0001	5e-05	0	0
574	4e-05	7e-05	0.00023	0.00034	0.00023	0.0001	5e-05	0	0
575	4e-05	7e-05	0.00023	0.00034	0.00023	0.0001	5e-05	0	0
576	4e-05	7e-05	0.00023	0.00034	0.00023	0.0001	5e-05	0	0
577	4e-05	7e-05	0.00023	0.00034	0.00023	0.0001	5e-05	0	0
578	4e-05	7e-05	0.00023	0.00034	0.00023	0.0001	5e-05	0	0
579	4e-05	7e-05	0.00023	0.00034	0.00023	0.0001	5e-05	0	0
580	4e-05	7e-05	0.00023	0.00034	0.00023	0.0001	5e-05	0	0
581	4e-05	7e-05	0.00023	0.00034	0.00023	0.0001	5e-05	0	0
583	2e-05	4e-05	8e-05	0.00011	6e-05	-1e-05	0	5e-05	0
584	-5e-05	-7e-05	8e-05	-0.00012	-0.00019	-0.00011	-6e-05	-5e-05	0
585	-5e-05	-7e-05	8e-05	-0.00012	-0.00019	-0.00011	-6e-05	-5e-05	0
586	-5e-05	-7e-05	8e-05	-0.00012	-0.00019	-0.00011	-6e-05	-5e-05	0
589	-5e-05	-7e-05	8e-05	-0.00012	-0.00019	-0.00011	-6e-05	-5e-05	0
590	-5e-05	-7e-05	8e-05	-0.00012	-0.00019	-0.00011	-6e-05	-5e-05	0
591	-5e-05	-7e-05	8e-05	-0.00012	-0.00019	-0.00011	-6e-05	-5e-05	0
592	-5e-05	-7e-05	8e-05	-0.00012	-0.00019	-0.00011	-6e-05	-5e-05	0
593	-5e-05	-7e-05	8e-05	-0.00012	-0.00019	-0.00011	-6e-05	-5e-05	0
594	-5e-05	-7e-05	8e-05	-0.00012	-0.00019	-0.00011	-6e-05	-5e-05	0
595	-5e-05	-7e-05	8e-05	-0.00012	-0.00019	-0.00011	-6e-05	-5e-05	0
596	-5e-05	-7e-05	8e-05	-0.00012	-0.00019	-0.00011	-6e-05	-5e-05	0
597	-5e-05	-7e-05	8e-05	-0.00012	-0.00019	-0.00011	-6e-05	-5e-05	0
599	-5e-05	-7e-05	8e-05	-0.00012	-0.00019	-0.00011	-6e-05	-5e-05	0
600	-5e-05	-7e-05	8e-05	-0.00012	-0.00019	-0.00011	-6e-05	-5e-05	0
601	-5e-05	-7e-05	8e-05	-0.00012	-0.00019	-0.00011	-6e-05	-5e-05	0
602	-5e-05	-7e-05	8e-05	-0.00012	-0.00019	-0.00011	-6e-05	-5e-05	0
603	-3e-05	-2e-05	-8e-05	7e-05	-8e-05	-7e-05	-1e-05	-4e-05	0
604	-3e-05	-2e-05	-8e-05	7e-05	-8e-05	-7e-05	-1e-05	-4e-05	0
605	-1e-05	-5e-05	-7e-05	-0.00012	-1e-05	9e-05	5e-05	1e-05	0
606	-1e-05	-5e-05	-7e-05	-0.00012	-1e-05	9e-05	5e-05	1e-05	0
607	-1e-05	-5e-05	-7e-05	-0.00012	-1e-05	9e-05	5e-05	1e-05	0
608	-1e-05	-5e-05	-7e-05	-0.00012	-1e-05	9e-05	5e-05	1e-05	0
609	-1e-05	-5e-05	-7e-05	-0.00012	-1e-05	9e-05	5e-05	1e-05	0
610	-1e-05	-5e-05	-7e-05	-0.00012	-1e-05	9e-05	5e-05	1e-05	0
611	-1e-05	-5e-05	-7e-05	-0.00012	-1e-05	9e-05	5e-05	1e-05	0
612	-1e-05	-5e-05	-7e-05	-0.00012	-1e-05	9e-05	5e-05	1e-05	0
613	-1e-05	-5e-05	-7e-05	-0.00012	-1e-05	9e-05	5e-05	1e-05	0
614	-1e-05	-5e-05	-7e-05	-0.00012	-1e-05	9e-05	5e-05	1e-05	0
615	-1e-05	-5e-05	-7e-05	-0.00012	-1e-05	9e-05	5e-05	1e-05	0
616	-1e-05	-5e-05	-7e-05	-0.00012	-1e-05	9e-05	5e-05	1e-05	0
617	-1e-05	-5e-05	-7e-05	-0.00012	-1e-05	9e-05	5e-05	1e-05	0
618	5e-05	2e-05	4e-05	0.00023	0.00021	7e-05	6e-05	6e-05	0
619	5e-05	2e-05	4e-05	0.00023	0.00021	7e-05	6e-05	6e-05	0
620	5e-05	2e-05	4e-05	0.00023	0.00021	7e-05	6e-05	6e-05	0
621	5e-05	2e-05	4e-05	0.00023	0.00021	7e-05	6e-05	6e-05	0
622	5e-05	2e-05	4e-05	0.00023	0.00021	7e-05	6e-05	6e-05	0
623	5e-05	2e-05	4e-05	0.00023	0.00021	7e-05	6e-05	6e-05	0
624	0	0.00018	3e-05	-0.00015	-6e-05	-1e-05	-3e-05	-2e-05	0
625	0	0.00018	3e-05	-0.00015	-6e-05	-1e-05	-3e-05	-2e-05	0
626	0	0.00018	3e-05	-0.00015	-6e-05	-1e-05	-3e-05	-2e-05	0
627	0	0.00018	3e-05	-0.00015	-6e-05	-1e-05	-3e-05	-2e-05	0
628	0	0.00018	3e-05	-0.00015	-6e-05	-1e-05	-3e-05	-2e-05	0
629	0	0.00018	3e-05	-0.00015	-6e-05	-1e-05	-3e-05	-2e-05	0
630	0	0.00018	3e-05	-0.00015	-6e-05	-1e-05	-3e-05	-2e-05	0
631	0	0.00018	3e-05	-0.00015	-6e-05	-1e-05	-3e-05	-2e-05	0
632	0	0.00018	3e-05	-0.00015	-6e-05	-1e-05	-3e-05	-2e-05	0
633	0	0.00018	3e-05	-0.00015	-6e-05	-1e-05	-3e-05	-2e-05	0
634	0	0.00018	3e-05	-0.00015	-6e-05	-1e-05	-3e-05	-2e-05	0
635	0	0.00018	3e-05	-0.00015	-6e-05	-1e-05	-3e-05	-2e-05	0
636	0	0.00018	3e-05	-0.00015	-6e-05	-1e-05	-3e-05	-2e-05	0
639	0	0.00018	3e-05	-0.00015	-6e-05	-1e-05	-3e-05	-2e-05	0
640	0	0.00018	3e-05	-0.00015	-6e-05	-1e-05	-3e-05	-2e-05	0
641	0	0.00018	3e-05	-0.00015	-6e-05	-1e-05	-3e-05	-2e-05	0
642	0	0.00018	3e-05	-0.00015	-6e-05	-1e-05	-3e-05	-2e-05	0
643	0	0.00018	3e-05	-0.00015	-6e-05	-1e-05	-3e-05	-2e-05	0
644	0	0.00018	3e-05	-0.00015	-6e-05	-1e-05	-3e-05	-2e-05	0
645	0	0.00018	3e-05	-0.00015	-6e-05	-1e-05	-3e-05	-2e-05	0
646	0	0.00018	3e-05	-0.00015	-6e-05	-1e-05	-3e-05	-2e-05	0
647	0	0.00018	3e-05	-0.00015	-6e-05	-1e-05	-3e-05	-2e-05	0
648	4e-05	6e-05	0.0002	0.00023	0.00019	1e-05	2e-05	3e-05	0
649	-0.00011	-0.00024	-0.00068	-0.00029	-0.00016	-0.0001	-4e-05	-5e-05	0
650	-1e-05	0	7e-05	-6e-05	-0.00021	-0.00014	-0.0001	-4e-05	0
651	-1e-05	0	7e-05	-6e-05	-0.00021	-0.00014	-0.0001	-4e-05	0
652	-1e-05	0	7e-05	-6e-05	-0.00021	-0.00014	-0.0001	-4e-05	0
653	-1e-05	0	7e-05	-6e-05	-0.00021	-0.00014	-0.0001	-4e-05	0
654	-1e-05	0	7e-05	-6e-05	-0.00021	-0.00014	-0.0001	-4e-05	0
655	-1e-05	0	7e-05	-6e-05	-0.00021	-0.00014	-0.0001	-4e-05	0
656	-1e-05	0	7e-05	-6e-05	-0.00021	-0.00014	-0.0001	-4e-05	0
657	-1e-05	0	7e-05	-6e-05	-0.00021	-0.00014	-0.0001	-4e-05	0
658	-1e-05	0	7e-05	-6e-05	-0.00021	-0.00014	-0.0001	-4e-05	0
659	-1e-05	0	7e-05	-6e-05	-0.00021	-0.00014	-0.0001	-4e-05	0
660	-1e-05	0	7e-05	-6e-05	-0.00021	-0.00014	-0.0001	-4e-05	0
661	-1e-05	0	7e-05	-6e-05	-0.00021	-0.00014	-0.0001	-4e-05	0
662	-1e-05	0	7e-05	-6e-05	-0.00021	-0.00014	-0.0001	-4e-05	0
663	-3e-05	-2e-05	-1e-05	-4e-05	-3e-05	-4e-05	-3e-05	-5e-05	0
664	3e-05	-1e-05	-0.00043	-3e-05	8e-05	7e-05	4e-05	4e-05	0
665	-2e-05	-9e-05	0.00016	0.0001	6e-05	5e-05	3e-05	1e-05	0
666	-2e-05	-9e-05	0.00016	0.0001	6e-05	5e-05	3e-05	1e-05	0
667	-2e-05	-9e-05	0.00016	0.0001	6e-05	5e-05	3e-05	1e-05	0
668	-2e-05	-9e-05	0.00016	0.0001	6e-05	5e-05	3e-05	1e-05	0
669	-2e-05	-9e-05	0.00016	0.0001	6e-05	5e-05	3e-05	1e-05	0
670	-2e-05	-9e-05	0.00016	0.0001	6e-05	5e-05	3e-05	1e-05	0
671	-2e-05	-9e-05	0.00016	0.0001	6e-05	5e-05	3e-05	1e-05	0
672	-2e-05	-9e-05	0.00016	0.0001	6e-05	5e-05	3e-05	1e-05	0
673	-2e-05	-9e-05	0.00016	0.0001	6e-05	5e-05	3e-05	1e-05	0
674	-2e-05	-9e-05	0.00016	0.0001	6e-05	5e-05	3e-05	1e-05	0
675	-2e-05	-9e-05	0.00016	0.0001	6e-05	5e-05	3e-05	1e-05	0
676	-2e-05	-9e-05	0.00016	0.0001	6e-05	5e-05	3e-05	1e-05	0
677	-3e-05	-3e-05	-0.00045	-0.00018	2e-05	-6e-05	0	-4e-05	0
678	0	-3e-05	0.00028	0.00016	-7e-05	0	-2e-05	-1e-05	0
679	0	-3e-05	0.00028	0.00016	-7e-05	0	-2e-05	-1e-05	0
680	0	-3e-05	0.00028	0.00016	-7e-05	0	-2e-05	-1e-05	0
681	0	-3e-05	0.00028	0.00016	-7e-05	0	-2e-05	-1e-05	0
682	0	-3e-05	0.00028	0.00016	-7e-05	0	-2e-05	-1e-05	0
683	0	-3e-05	0.00028	0.00016	-7e-05	0	-2e-05	-1e-05	0
684	-3e-05	-0.0001	6e-05	1e-05	1e-05	-8e-05	-5e-05	-2e-05	0
685	-3e-05	-0.0001	6e-05	1e-05	1e-05	-8e-05	-5e-05	-2e-05	0
686	-3e-05	-0.0001	6e-05	1e-05	1e-05	-8e-05	-5e-05	-2e-05	0
689	-3e-05	-0.0001	6e-05	1e-05	1e-05	-8e-05	-5e-05	-2e-05	0
690	-3e-05	-0.0001	6e-05	1e-05	1e-05	-8e-05	-5e-05	-2e-05	0
691	-3e-05	-0.0001	6e-05	1e-05	1e-05	-8e-05	-5e-05	-2e-05	0
692	-3e-05	-0.0001	6e-05	1e-05	1e-05	-8e-05	-5e-05	-2e-05	0
693	-3e-05	-0.0001	6e-05	1e-05	1e-05	-8e-05	-5e-05	-2e-05	0
694	-3e-05	-0.0001	6e-05	1e-05	1e-05	-8e-05	-5e-05	-2e-05	0
695	-3e-05	-0.0001	6e-05	1e-05	1e-05	-8e-05	-5e-05	-2e-05	0
696	-3e-05	-0.0001	6e-05	1e-05	1e-05	-8e-05	-5e-05	-2e-05	0
697	-3e-05	-0.0001	6e-05	1e-05	1e-05	-8e-05	-5e-05	-2e-05	0
698	-3e-05	-0.0001	6e-05	1e-05	1e-05	-8e-05	-5e-05	-2e-05	0
699	-3e-05	-0.0001	6e-05	1e-05	1e-05	-8e-05	-5e-05	-2e-05	0
700	1e-05	2e-05	2e-05	7e-05	-5e-05	2e-05	2e-05	1e-05	0
701	1e-05	2e-05	2e-05	7e-05	-5e-05	2e-05	2e-05	1e-05	0
702	-2e-05	-0.0001	2e-05	-0.00021	2e-05	-1e-05	-2e-05	-2e-05	0
703	-2e-05	-0.0001	2e-05	-0.00021	2e-05	-1e-05	-2e-05	-2e-05	0
704	-2e-05	-0.0001	2e-05	-0.00021	2e-05	-1e-05	-2e-05	-2e-05	0
705	-2e-05	-0.0001	2e-05	-0.00021	2e-05	-1e-05	-2e-05	-2e-05	0
706	-2e-05	-0.0001	2e-05	-0.00021	2e-05	-1e-05	-2e-05	-2e-05	0
707	-2e-05	-0.0001	2e-05	-0.00021	2e-05	-1e-05	-2e-05	-2e-05	0
708	-2e-05	-0.0001	2e-05	-0.00021	2e-05	-1e-05	-2e-05	-2e-05	0
709	-2e-05	-0.0001	2e-05	-0.00021	2e-05	-1e-05	-2e-05	-2e-05	0
710	-2e-05	-0.0001	2e-05	-0.00021	2e-05	-1e-05	-2e-05	-2e-05	0
711	-2e-05	-0.0001	2e-05	-0.00021	2e-05	-1e-05	-2e-05	-2e-05	0
712	-2e-05	-0.0001	2e-05	-0.00021	2e-05	-1e-05	-2e-05	-2e-05	0
713	-2e-05	-0.0001	2e-05	-0.00021	2e-05	-1e-05	-2e-05	-2e-05	0
714	-2e-05	-0.0001	2e-05	-0.00021	2e-05	-1e-05	-2e-05	-2e-05	0
715	-2e-05	-0.0001	2e-05	-0.00021	2e-05	-1e-05	-2e-05	-2e-05	0
716	-2e-05	-0.0001	2e-05	-0.00021	2e-05	-1e-05	-2e-05	-2e-05	0
717	-2e-05	-0.0001	2e-05	-0.00021	2e-05	-1e-05	-2e-05	-2e-05	0
718	-2e-05	-0.0001	2e-05	-0.00021	2e-05	-1e-05	-2e-05	-2e-05	0
719	-2e-05	-0.0001	2e-05	-0.00021	2e-05	-1e-05	-2e-05	-2e-05	0
720	-2e-05	-0.0001	2e-05	-0.00021	2e-05	-1e-05	-2e-05	-2e-05	0
721	-2e-05	-0.0001	2e-05	-0.00021	2e-05	-1e-05	-2e-05	-2e-05	0
723	-2e-05	-0.0001	2e-05	-0.00021	2e-05	-1e-05	-2e-05	-2e-05	0
724	-2e-05	-0.0001	2e-05	-0.00021	2e-05	-1e-05	-2e-05	-2e-05	0
725	0	-4e-05	-3e-05	3e-05	0.00014	2e-05	0	0	0
726	0	-4e-05	-3e-05	3e-05	0.00014	2e-05	0	0	0
727	0	-4e-05	-3e-05	3e-05	0.00014	2e-05	0	0	0
728	0	-4e-05	-3e-05	3e-05	0.00014	2e-05	0	0	0
729	0	-4e-05	-3e-05	3e-05	0.00014	2e-05	0	0	0
730	0	-4e-05	-3e-05	3e-05	0.00014	2e-05	0	0	0
731	0	-4e-05	-3e-05	3e-05	0.00014	2e-05	0	0	0
732	0	-4e-05	-3e-05	3e-05	0.00014	2e-05	0	0	0
733	0	-4e-05	-3e-05	3e-05	0.00014	2e-05	0	0	0
734	0	-4e-05	-3e-05	3e-05	0.00014	2e-05	0	0	0
735	0	-4e-05	-3e-05	3e-05	0.00014	2e-05	0	0	0
736	0	-4e-05	-3e-05	3e-05	0.00014	2e-05	0	0	0
739	0	-9e-05	-0.00038	-0.00015	-1e-05	-3e-05	2e-05	3e-05	0
740	0	-9e-05	-0.00038	-0.00015	-1e-05	-3e-05	2e-05	3e-05	0
741	0	-9e-05	-0.00038	-0.00015	-1e-05	-3e-05	2e-05	3e-05	0
742	0	-9e-05	-0.00038	-0.00015	-1e-05	-3e-05	2e-05	3e-05	0
743	0	-9e-05	-0.00038	-0.00015	-1e-05	-3e-05	2e-05	3e-05	0
744	0	3e-05	2e-05	1e-05	-5e-05	-6e-05	-5e-05	-2e-05	0
745	0	3e-05	2e-05	1e-05	-5e-05	-6e-05	-5e-05	-2e-05	0
746	0	3e-05	2e-05	1e-05	-5e-05	-6e-05	-5e-05	-2e-05	0
747	0	3e-05	2e-05	1e-05	-5e-05	-6e-05	-5e-05	-2e-05	0
748	0	3e-05	2e-05	1e-05	-5e-05	-6e-05	-5e-05	-2e-05	0
749	0	3e-05	2e-05	1e-05	-5e-05	-6e-05	-5e-05	-2e-05	0
750	0	3e-05	2e-05	1e-05	-5e-05	-6e-05	-5e-05	-2e-05	0
751	0	3e-05	2e-05	1e-05	-5e-05	-6e-05	-5e-05	-2e-05	0
752	0	3e-05	2e-05	1e-05	-5e-05	-6e-05	-5e-05	-2e-05	0
753	0	3e-05	2e-05	1e-05	-5e-05	-6e-05	-5e-05	-2e-05	0
754	0	3e-05	2e-05	1e-05	-5e-05	-6e-05	-5e-05	-2e-05	0
755	0	3e-05	2e-05	1e-05	-5e-05	-6e-05	-5e-05	-2e-05	0
756	0	3e-05	2e-05	1e-05	-5e-05	-6e-05	-5e-05	-2e-05	0
757	0	3e-05	2e-05	1e-05	-5e-05	-6e-05	-5e-05	-2e-05	0
758	0	3e-05	2e-05	1e-05	-5e-05	-6e-05	-5e-05	-2e-05	0
759	0	3e-05	2e-05	1e-05	-5e-05	-6e-05	-5e-05	-2e-05	0
760	-6e-05	-9e-05	-0.00016	-0.0001	-2e-05	-9e-05	-2e-05	-1e-05	0
761	-1e-05	0	8e-05	6e-05	1e-05	6e-05	4e-05	-1e-05	0
762	-2e-05	-2e-05	-5e-05	1e-05	-1e-05	-4e-05	-3e-05	-1e-05	0
763	-2e-05	-2e-05	-5e-05	1e-05	-1e-05	-4e-05	-3e-05	-1e-05	0
764	-2e-05	-2e-05	-5e-05	1e-05	-1e-05	-4e-05	-3e-05	-1e-05	0
765	-2e-05	-2e-05	-5e-05	1e-05	-1e-05	-4e-05	-3e-05	-1e-05	0
766	-2e-05	-2e-05	-5e-05	1e-05	-1e-05	-4e-05	-3e-05	-1e-05	0
767	-2e-05	-2e-05	-5e-05	1e-05	-1e-05	-4e-05	-3e-05	-1e-05	0
768	-2e-05	-2e-05	-5e-05	1e-05	-1e-05	-4e-05	-3e-05	-1e-05	0
769	-2e-05	-2e-05	-5e-05	1e-05	-1e-05	-4e-05	-3e-05	-1e-05	0
770	-2e-05	-2e-05	-5e-05	1e-05	-1e-05	-4e-05	-3e-05	-1e-05	0
771	-2e-05	-2e-05	-5e-05	1e-05	-1e-05	-4e-05	-3e-05	-1e-05	0
772	-2e-05	-2e-05	-5e-05	1e-05	-1e-05	-4e-05	-3e-05	-1e-05	0
773	-2e-05	-2e-05	-5e-05	1e-05	-1e-05	-4e-05	-3e-05	-1e-05	0
774	-2e-05	-2e-05	-5e-05	1e-05	-1e-05	-4e-05	-3e-05	-1e-05	0
775	-2e-05	-2e-05	-5e-05	1e-05	-1e-05	-4e-05	-3e-05	-1e-05	0
776	-2e-05	-2e-05	-5e-05	1e-05	-1e-05	-4e-05	-3e-05	-1e-05	0
777	-2e-05	-2e-05	-5e-05	1e-05	-1e-05	-4e-05	-3e-05	-1e-05	0
778	-2e-05	-2e-05	-5e-05	1e-05	-1e-05	-4e-05	-3e-05	-1e-05	0
779	-2e-05	-2e-05	-5e-05	1e-05	-1e-05	-4e-05	-3e-05	-1e-05	0
780	-2e-05	-2e-05	-5e-05	1e-05	-1e-05	-4e-05	-3e-05	-1e-05	0
781	-2e-05	-2e-05	-5e-05	1e-05	-1e-05	-4e-05	-3e-05	-1e-05	0
782	-2e-05	-2e-05	-5e-05	1e-05	-1e-05	-4e-05	-3e-05	-1e-05	0
783	-1e-05	1e-05	0.00026	7e-05	-4e-05	-6e-05	-9e-05	-1e-05	0
784	1e-05	-1e-05	-2e-05	5e-05	-4e-05	4e-05	5e-05	2e-05	0
785	1e-05	-1e-05	-2e-05	5e-05	-4e-05	4e-05	5e-05	2e-05	0
786	1e-05	-1e-05	-2e-05	5e-05	-4e-05	4e-05	5e-05	2e-05	0
788	1e-05	-1e-05	-2e-05	5e-05	-4e-05	4e-05	5e-05	2e-05	0
790	1e-05	-1e-05	-2e-05	5e-05	-4e-05	4e-05	5e-05	2e-05	0
791	1e-05	-1e-05	-2e-05	5e-05	-4e-05	4e-05	5e-05	2e-05	0
792	1e-05	-1e-05	-2e-05	5e-05	-4e-05	4e-05	5e-05	2e-05	0
793	1e-05	-1e-05	-2e-05	5e-05	-4e-05	4e-05	5e-05	2e-05	0
794	1e-05	-1e-05	-2e-05	5e-05	-4e-05	4e-05	5e-05	2e-05	0
795	1e-05	-1e-05	-2e-05	5e-05	-4e-05	4e-05	5e-05	2e-05	0
796	1e-05	-1e-05	-2e-05	5e-05	-4e-05	4e-05	5e-05	2e-05	0
797	-1e-05	3e-05	0.0001	1e-05	7e-05	2e-05	-4e-05	0	0
798	-1e-05	3e-05	0.0001	1e-05	7e-05	2e-05	-4e-05	0	0
799	-1e-05	3e-05	0.0001	1e-05	7e-05	2e-05	-4e-05	0	0
800	-1e-05	3e-05	0.0001	1e-05	7e-05	2e-05	-4e-05	0	0
801	-1e-05	3e-05	0.0001	1e-05	7e-05	2e-05	-4e-05	0	0
802	-1e-05	3e-05	0.0001	1e-05	7e-05	2e-05	-4e-05	0	0
803	-1e-05	3e-05	0.0001	1e-05	7e-05	2e-05	-4e-05	0	0
804	-1e-05	3e-05	0.0001	1e-05	7e-05	2e-05	-4e-05	0	0
805	-1e-05	3e-05	0.0001	1e-05	7e-05	2e-05	-4e-05	0	0
806	-1e-05	-4e-05	-0.00014	-4e-05	-4e-05	0	-1e-05	0	0
807	-1e-05	-4e-05	-0.00014	-4e-05	-4e-05	0	-1e-05	0	0
808	-1e-05	-4e-05	-0.00014	-4e-05	-4e-05	0	-1e-05	0	0
809	-1e-05	-4e-05	-0.00014	-4e-05	-4e-05	0	-1e-05	0	0
810	-1e-05	-4e-05	-0.00014	-4e-05	-4e-05	0	-1e-05	0	0
811	-1e-05	-4e-05	-0.00014	-4e-05	-4e-05	0	-1e-05	0	0
812	-1e-05	-4e-05	-0.00014	-4e-05	-4e-05	0	-1e-05	0	0
813	-1e-05	-4e-05	-0.00014	-4e-05	-4e-05	0	-1e-05	0	0
814	-1e-05	-4e-05	-0.00014	-4e-05	-4e-05	0	-1e-05	0	0
815	-1e-05	-4e-05	-0.00014	-4e-05	-4e-05	0	-1e-05	0	0
816	-1e-05	-4e-05	-0.00014	-4e-05	-4e-05	0	-1e-05	0	0
817	-1e-05	-4e-05	-0.00014	-4e-05	-4e-05	0	-1e-05	0	0
818	-1e-05	-4e-05	-0.00014	-4e-05	-4e-05	0	-1e-05	0	0
819	-1e-05	-4e-05	-0.00014	-4e-05	-4e-05	0	-1e-05	0	0
820	-1e-05	3e-05	-0.00014	-4e-05	-4e-05	-3e-05	-1e-05	-1e-05	0
821	-1e-05	3e-05	-0.00014	-4e-05	-4e-05	-3e-05	-1e-05	-1e-05	0
822	1e-05	3e-05	0.00023	9e-05	0	2e-05	3e-05	2e-05	0
823	1e-05	3e-05	0.00023	9e-05	0	2e-05	3e-05	2e-05	0
824	1e-05	3e-05	0.00023	9e-05	0	2e-05	3e-05	2e-05	0
825	1e-05	3e-05	0.00023	9e-05	0	2e-05	3e-05	2e-05	0
826	1e-05	3e-05	0.00023	9e-05	0	2e-05	3e-05	2e-05	0
827	1e-05	3e-05	0.00023	9e-05	0	2e-05	3e-05	2e-05	0
828	1e-05	3e-05	0.00023	9e-05	0	2e-05	3e-05	2e-05	0
829	1e-05	3e-05	0.00023	9e-05	0	2e-05	3e-05	2e-05	0
830	1e-05	3e-05	0.00023	9e-05	0	2e-05	3e-05	2e-05	0
831	1e-05	3e-05	0.00023	9e-05	0	2e-05	3e-05	2e-05	0
832	1e-05	3e-05	0.00023	9e-05	0	2e-05	3e-05	2e-05	0
833	1e-05	3e-05	0.00023	9e-05	0	2e-05	3e-05	2e-05	0
834	1e-05	3e-05	0.00023	9e-05	0	2e-05	3e-05	2e-05	0
835	1e-05	3e-05	0.00023	9e-05	0	2e-05	3e-05	2e-05	0
836	1e-05	3e-05	0.00023	9e-05	0	2e-05	3e-05	2e-05	0
839	1e-05	3e-05	0.00023	9e-05	0	2e-05	3e-05	2e-05	0
840	1e-05	3e-05	0.00023	9e-05	0	2e-05	3e-05	2e-05	0
841	1e-05	3e-05	0.00023	9e-05	0	2e-05	3e-05	2e-05	0
842	-2e-05	2e-05	0.0001	-1e-05	2e-05	-1e-05	-2e-05	-2e-05	0
843	-2e-05	-1e-05	3e-05	4e-05	-2e-05	-2e-05	-3e-05	-2e-05	0
844	-2e-05	-1e-05	3e-05	4e-05	-2e-05	-2e-05	-3e-05	-2e-05	0
845	-2e-05	-1e-05	3e-05	4e-05	-2e-05	-2e-05	-3e-05	-2e-05	0
846	-2e-05	-1e-05	3e-05	4e-05	-2e-05	-2e-05	-3e-05	-2e-05	0
847	-2e-05	-1e-05	3e-05	4e-05	-2e-05	-2e-05	-3e-05	-2e-05	0
848	-2e-05	-1e-05	3e-05	4e-05	-2e-05	-2e-05	-3e-05	-2e-05	0
849	-2e-05	-1e-05	3e-05	4e-05	-2e-05	-2e-05	-3e-05	-2e-05	0
850	-2e-05	-1e-05	3e-05	4e-05	-2e-05	-2e-05	-3e-05	-2e-05	0
851	-2e-05	-1e-05	3e-05	4e-05	-2e-05	-2e-05	-3e-05	-2e-05	0
852	-2e-05	-1e-05	3e-05	4e-05	-2e-05	-2e-05	-3e-05	-2e-05	0
853	-2e-05	-1e-05	3e-05	4e-05	-2e-05	-2e-05	-3e-05	-2e-05	0
854	-2e-05	-1e-05	3e-05	4e-05	-2e-05	-2e-05	-3e-05	-2e-05	0
855	-2e-05	-1e-05	3e-05	4e-05	-2e-05	-2e-05	-3e-05	-2e-05	0
856	-2e-05	-1e-05	3e-05	4e-05	-2e-05	-2e-05	-3e-05	-2e-05	0
857	-2e-05	-1e-05	3e-05	4e-05	-2e-05	-2e-05	-3e-05	-2e-05	0
858	-2e-05	-1e-05	3e-05	4e-05	-2e-05	-2e-05	-3e-05	-2e-05	0
859	-2e-05	-1e-05	3e-05	4e-05	-2e-05	-2e-05	-3e-05	-2e-05	0
860	-2e-05	-1e-05	3e-05	4e-05	-2e-05	-2e-05	-3e-05	-2e-05	0
861	-2e-05	-1e-05	3e-05	4e-05	-2e-05	-2e-05	-3e-05	-2e-05	0
862	-2e-05	-1e-05	3e-05	4e-05	-2e-05	-2e-05	-3e-05	-2e-05	0
863	-2e-05	-1e-05	3e-05	4e-05	-2e-05	-2e-05	-3e-05	-2e-05	0
864	-2e-05	-1e-05	3e-05	4e-05	-2e-05	-2e-05	-3e-05	-2e-05	0
865	2e-05	3e-05	0.00017	9e-05	8e-05	6e-05	0	1e-05	0
866	2e-05	-1e-05	0.00013	5e-05	9e-05	7e-05	1e-05	-2e-05	0
867	2e-05	-1e-05	0.00013	5e-05	9e-05	7e-05	1e-05	-2e-05	0
868	2e-05	-1e-05	0.00013	5e-05	9e-05	7e-05	1e-05	-2e-05	0
869	2e-05	-1e-05	0.00013	5e-05	9e-05	7e-05	1e-05	-2e-05	0
870	2e-05	-1e-05	0.00013	5e-05	9e-05	7e-05	1e-05	-2e-05	0
871	2e-05	-1e-05	0.00013	5e-05	9e-05	7e-05	1e-05	-2e-05	0
872	2e-05	-1e-05	0.00013	5e-05	9e-05	7e-05	1e-05	-2e-05	0
873	2e-05	-1e-05	0.00013	5e-05	9e-05	7e-05	1e-05	-2e-05	0
874	2e-05	-1e-05	0.00013	5e-05	9e-05	7e-05	1e-05	-2e-05	0
875	2e-05	-1e-05	0.00013	5e-05	9e-05	7e-05	1e-05	-2e-05	0
876	2e-05	-1e-05	0.00013	5e-05	9e-05	7e-05	1e-05	-2e-05	0
877	2e-05	-1e-05	0.00013	5e-05	9e-05	7e-05	1e-05	-2e-05	0
878	2e-05	-1e-05	0.00013	5e-05	9e-05	7e-05	1e-05	-2e-05	0
879	2e-05	-1e-05	0.00013	5e-05	9e-05	7e-05	1e-05	-2e-05	0
880	-3e-05	-6e-05	-0.00011	-3e-05	-1e-05	-1e-05	0	-3e-05	0
881	-3e-05	-6e-05	-0.00011	-3e-05	-1e-05	-1e-05	0	-3e-05	0
882	-3e-05	-6e-05	-0.00011	-3e-05	-1e-05	-1e-05	0	-3e-05	0
883	-3e-05	-6e-05	-0.00011	-3e-05	-1e-05	-1e-05	0	-3e-05	0
884	-3e-05	-6e-05	-0.00011	-3e-05	-1e-05	-1e-05	0	-3e-05	0
885	-3e-05	-6e-05	-0.00011	-3e-05	-1e-05	-1e-05	0	-3e-05	0
887	-3e-05	-6e-05	-0.00011	-3e-05	-1e-05	-1e-05	0	-3e-05	0
890	-3e-05	-6e-05	-0.00011	-3e-05	-1e-05	-1e-05	0	-3e-05	0
891	-3e-05	-6e-05	-0.00011	-3e-05	-1e-05	-1e-05	0	-3e-05	0
892	-3e-05	-6e-05	-0.00011	-3e-05	-1e-05	-1e-05	0	-3e-05	0
893	-3e-05	-6e-05	-0.00011	-3e-05	-1e-05	-1e-05	0	-3e-05	0
894	-3e-05	-6e-05	-0.00011	-3e-05	-1e-05	-1e-05	0	-3e-05	0
895	-3e-05	-6e-05	-0.00011	-3e-05	-1e-05	-1e-05	0	-3e-05	0
896	-3e-05	-6e-05	-0.00011	-3e-05	-1e-05	-1e-05	0	-3e-05	0
897	-3e-05	-6e-05	-0.00011	-3e-05	-1e-05	-1e-05	0	-3e-05	0
898	-3e-05	-6e-05	-0.00011	-3e-05	-1e-05	-1e-05	0	-3e-05	0
899	-3e-05	-6e-05	-0.00011	-3e-05	-1e-05	-1e-05	0	-3e-05	0
900	-3e-05	-6e-05	-0.00011	-3e-05	-1e-05	-1e-05	0	-3e-05	0
901	-3e-05	-6e-05	-0.00011	-3e-05	-1e-05	-1e-05	0	-3e-05	0
902	-2e-05	0	3e-05	0	0	1e-05	-1e-05	-1e-05	0
903	-2e-05	0	-0.00012	-5e-05	-1e-05	-1e-05	-1e-05	0	0
904	-2e-05	0	-0.00012	-5e-05	-1e-05	-1e-05	-1e-05	0	0
905	-2e-05	0	-0.00012	-5e-05	-1e-05	-1e-05	-1e-05	0	0
906	-2e-05	0	-0.00012	-5e-05	-1e-05	-1e-05	-1e-05	0	0
907	-2e-05	0	-0.00012	-5e-05	-1e-05	-1e-05	-1e-05	0	0
908	-2e-05	0	-0.00012	-5e-05	-1e-05	-1e-05	-1e-05	0	0
909	-2e-05	0	-0.00012	-5e-05	-1e-05	-1e-05	-1e-05	0	0
910	-2e-05	0	-0.00012	-5e-05	-1e-05	-1e-05	-1e-05	0	0
911	-2e-05	0	-0.00012	-5e-05	-1e-05	-1e-05	-1e-05	0	0
912	-2e-05	0	-0.00012	-5e-05	-1e-05	-1e-05	-1e-05	0	0
913	-2e-05	0	-0.00012	-5e-05	-1e-05	-1e-05	-1e-05	0	0
914	-2e-05	0	-0.00012	-5e-05	-1e-05	-1e-05	-1e-05	0	0
915	-2e-05	0	-0.00012	-5e-05	-1e-05	-1e-05	-1e-05	0	0
916	-2e-05	0	-0.00012	-5e-05	-1e-05	-1e-05	-1e-05	0	0
917	-2e-05	0	-0.00012	-5e-05	-1e-05	-1e-05	-1e-05	0	0
918	-2e-05	0	-0.00012	-5e-05	-1e-05	-1e-05	-1e-05	0	0
919	-2e-05	0	-0.00012	-5e-05	-1e-05	-1e-05	-1e-05	0	0
920	-2e-05	0	-0.00012	-5e-05	-1e-05	-1e-05	-1e-05	0	0
921	-2e-05	0	-0.00012	-5e-05	-1e-05	-1e-05	-1e-05	0	0
922	-2e-05	0	-0.00012	-5e-05	-1e-05	-1e-05	-1e-05	0	0
923	-2e-05	0	-0.00012	-5e-05	-1e-05	-1e-05	-1e-05	0	0
924	-2e-05	0	-0.00012	-5e-05	-1e-05	-1e-05	-1e-05	0	0
925	-2e-05	2e-05	-1e-05	-2e-05	-5e-05	-2e-05	0	-1e-05	0
926	-1e-05	-4e-05	-0.00012	-0.00013	-5e-05	-5e-05	-2e-05	1e-05	0
927	-1e-05	-4e-05	-0.00012	-0.00013	-5e-05	-5e-05	-2e-05	1e-05	0
928	-1e-05	-4e-05	-0.00012	-0.00013	-5e-05	-5e-05	-2e-05	1e-05	0
929	-1e-05	-4e-05	-0.00012	-0.00013	-5e-05	-5e-05	-2e-05	1e-05	0
930	-1e-05	-4e-05	-0.00012	-0.00013	-5e-05	-5e-05	-2e-05	1e-05	0
931	-1e-05	-4e-05	-0.00012	-0.00013	-5e-05	-5e-05	-2e-05	1e-05	0
932	-1e-05	-4e-05	-0.00012	-0.00013	-5e-05	-5e-05	-2e-05	1e-05	0
933	-1e-05	-4e-05	-0.00012	-0.00013	-5e-05	-5e-05	-2e-05	1e-05	0
934	-1e-05	-4e-05	-0.00012	-0.00013	-5e-05	-5e-05	-2e-05	1e-05	0
935	-1e-05	-4e-05	-0.00012	-0.00013	-5e-05	-5e-05	-2e-05	1e-05	0
936	-1e-05	-4e-05	-0.00012	-0.00013	-5e-05	-5e-05	-2e-05	1e-05	0
938	-1e-05	-4e-05	-0.00012	-0.00013	-5e-05	-5e-05	-2e-05	1e-05	0
939	-1e-05	-4e-05	-0.00012	-0.00013	-5e-05	-5e-05	-2e-05	1e-05	0
940	0	0	0.00013	7e-05	3e-05	1e-05	-2e-05	-2e-05	0
941	-1e-05	-1e-05	3e-05	5e-05	2e-05	0	0	-2e-05	0
942	-2e-05	-4e-05	-0.00028	-0.00012	-4e-05	0	-1e-05	-1e-05	0
943	-2e-05	-4e-05	-0.00028	-0.00012	-4e-05	0	-1e-05	-1e-05	0
944	-2e-05	-4e-05	-0.00028	-0.00012	-4e-05	0	-1e-05	-1e-05	0
945	-2e-05	-4e-05	-0.00028	-0.00012	-4e-05	0	-1e-05	-1e-05	0
946	-2e-05	-4e-05	-0.00028	-0.00012	-4e-05	0	-1e-05	-1e-05	0
947	-2e-05	-4e-05	-0.00028	-0.00012	-4e-05	0	-1e-05	-1e-05	0
948	-2e-05	-4e-05	-0.00028	-0.00012	-4e-05	0	-1e-05	-1e-05	0
949	-2e-05	-4e-05	-0.00028	-0.00012	-4e-05	0	-1e-05	-1e-05	0
950	-2e-05	-4e-05	-0.00028	-0.00012	-4e-05	0	-1e-05	-1e-05	0
951	-2e-05	-4e-05	-0.00028	-0.00012	-4e-05	0	-1e-05	-1e-05	0
952	-2e-05	-4e-05	-0.00028	-0.00012	-4e-05	0	-1e-05	-1e-05	0
953	-2e-05	-4e-05	-0.00028	-0.00012	-4e-05	0	-1e-05	-1e-05	0
954	-2e-05	-4e-05	-0.00028	-0.00012	-4e-05	0	-1e-05	-1e-05	0
956	-2e-05	-4e-05	-0.00028	-0.00012	-4e-05	0	-1e-05	-1e-05	0
959	-2e-05	-4e-05	-0.00028	-0.00012	-4e-05	0	-1e-05	-1e-05	0
960	-2e-05	-4e-05	-0.00028	-0.00012	-4e-05	0	-1e-05	-1e-05	0
961	-2e-05	-4e-05	-0.00028	-0.00012	-4e-05	0	-1e-05	-1e-05	0
962	0	0	-7e-05	-5e-05	-1e-05	-5e-05	-2e-05	-1e-05	0
963	0	0	-7e-05	-5e-05	-1e-05	-5e-05	-2e-05	-1e-05	0
964	0	0	-7e-05	-5e-05	-1e-05	-5e-05	-2e-05	-1e-05	0
965	0	0	-7e-05	-5e-05	-1e-05	-5e-05	-2e-05	-1e-05	0
966	0	0	-7e-05	-5e-05	-1e-05	-5e-05	-2e-05	-1e-05	0
967	0	0	-7e-05	-5e-05	-1e-05	-5e-05	-2e-05	-1e-05	0
968	0	0	-7e-05	-5e-05	-1e-05	-5e-05	-2e-05	-1e-05	0
969	0	0	-7e-05	-5e-05	-1e-05	-5e-05	-2e-05	-1e-05	0
970	-2e-05	0	3e-05	6e-05	2e-05	1e-05	-1e-05	0	0
971	-2e-05	0	3e-05	6e-05	2e-05	1e-05	-1e-05	0	0
972	-2e-05	0	3e-05	6e-05	2e-05	1e-05	-1e-05	0	0
973	-2e-05	0	3e-05	6e-05	2e-05	1e-05	-1e-05	0	0
974	-2e-05	0	3e-05	6e-05	2e-05	1e-05	-1e-05	0	0
975	-2e-05	0	3e-05	6e-05	2e-05	1e-05	-1e-05	0	0
976	-2e-05	0	3e-05	6e-05	2e-05	1e-05	-1e-05	0	0
977	-2e-05	0	3e-05	6e-05	2e-05	1e-05	-1e-05	0	0
978	-2e-05	0	3e-05	6e-05	2e-05	1e-05	-1e-05	0	0
979	-2e-05	0	3e-05	6e-05	2e-05	1e-05	-1e-05	0	0
980	-2e-05	0	3e-05	6e-05	2e-05	1e-05	-1e-05	0	0
981	-2e-05	0	3e-05	6e-05	2e-05	1e-05	-1e-05	0	0
982	-2e-05	0	3e-05	6e-05	2e-05	1e-05	-1e-05	0	0
983	-2e-05	0	3e-05	6e-05	2e-05	1e-05	-1e-05	0	0
984	-2e-05	0	3e-05	6e-05	2e-05	1e-05	-1e-05	0	0
985	-1e-05	-3e-05	-0.0001	-4e-05	-4e-05	-3e-05	-1e-05	-2e-05	0
987	-3e-05	-4e-05	-9e-05	-9e-05	-3e-05	-4e-05	-1e-05	-4e-05	0
990	-3e-05	-4e-05	-9e-05	-9e-05	-3e-05	-4e-05	-1e-05	-4e-05	0
991	-3e-05	-4e-05	-9e-05	-9e-05	-3e-05	-4e-05	-1e-05	-4e-05	0
992	-3e-05	-4e-05	-9e-05	-9e-05	-3e-05	-4e-05	-1e-05	-4e-05	0
993	-3e-05	-4e-05	-9e-05	-9e-05	-3e-05	-4e-05	-1e-05	-4e-05	0
994	-3e-05	-4e-05	-9e-05	-9e-05	-3e-05	-4e-05	-1e-05	-4e-05	0
995	-3e-05	-4e-05	-9e-05	-9e-05	-3e-05	-4e-05	-1e-05	-4e-05	0
996	-3e-05	-4e-05	-9e-05	-9e-05	-3e-05	-4e-05	-1e-05	-4e-05	0
997	-3e-05	-4e-05	-9e-05	-9e-05	-3e-05	-4e-05	-1e-05	-4e-05	0
998	-3e-05	-4e-05	-9e-05	-9e-05	-3e-05	-4e-05	-1e-05	-4e-05	0
999	-3e-05	-4e-05	-9e-05	-9e-05	-3e-05	-4e-05	-1e-05	-4e-05	0
1000	-3e-05	-4e-05	-9e-05	-9e-05	-3e-05	-4e-05	-1e-05	-4e-05	0
1001	-1e-05	1e-05	-2e-05	0	1e-05	1e-05	1e-05	1e-05	0
1002	-1e-05	1e-05	-2e-05	0	1e-05	1e-05	1e-05	1e-05	0
1004	-2e-05	-1e-05	-4e-05	-2e-05	-2e-05	-3e-05	0	-3e-05	0
1005	-2e-05	-1e-05	-4e-05	-2e-05	-2e-05	-3e-05	0	-3e-05	0
1006	-2e-05	-1e-05	-4e-05	-2e-05	-2e-05	-3e-05	0	-3e-05	0
1007	-2e-05	-1e-05	-4e-05	-2e-05	-2e-05	-3e-05	0	-3e-05	0
1008	-2e-05	-1e-05	-4e-05	-2e-05	-2e-05	-3e-05	0	-3e-05	0
1010	-2e-05	-1e-05	-4e-05	-2e-05	-2e-05	-3e-05	0	-3e-05	0
1011	-2e-05	-1e-05	-4e-05	-2e-05	-2e-05	-3e-05	0	-3e-05	0
1016	-2e-05	-1e-05	-4e-05	-2e-05	-2e-05	-3e-05	0	-3e-05	0
1017	-2e-05	-1e-05	-4e-05	-2e-05	-2e-05	-3e-05	0	-3e-05	0
1018	-2e-05	-1e-05	-4e-05	-2e-05	-2e-05	-3e-05	0	-3e-05	0
1019	-2e-05	-1e-05	-4e-05	-2e-05	-2e-05	-3e-05	0	-3e-05	0
1021	-2e-05	-1e-05	-4e-05	-2e-05	-2e-05	-3e-05	0	-3e-05	0
1022	-2e-05	-1e-05	-4e-05	-2e-05	-2e-05	-3e-05	0	-3e-05	0
1025	-2e-05	-1e-05	-4e-05	-2e-05	-2e-05	-3e-05	0	-3e-05	0
1026	-1e-05	-3e-05	-6e-05	4e-05	-5e-05	-1e-05	-1e-05	-1e-05	0
1027	-1e-05	-3e-05	-6e-05	4e-05	-5e-05	-1e-05	-1e-05	-1e-05	0
1028	-1e-05	-3e-05	-6e-05	4e-05	-5e-05	-1e-05	-1e-05	-1e-05	0
1029	-1e-05	-3e-05	-6e-05	4e-05	-5e-05	-1e-05	-1e-05	-1e-05	0
1030	-1e-05	-3e-05	-6e-05	4e-05	-5e-05	-1e-05	-1e-05	-1e-05	0
1031	-1e-05	-3e-05	-6e-05	4e-05	-5e-05	-1e-05	-1e-05	-1e-05	0
1032	-1e-05	-3e-05	-6e-05	4e-05	-5e-05	-1e-05	-1e-05	-1e-05	0
1033	-1e-05	-3e-05	-6e-05	4e-05	-5e-05	-1e-05	-1e-05	-1e-05	0
1034	-1e-05	-3e-05	-6e-05	4e-05	-5e-05	-1e-05	-1e-05	-1e-05	0
1035	-1e-05	-3e-05	-6e-05	4e-05	-5e-05	-1e-05	-1e-05	-1e-05	0
1036	-1e-05	-3e-05	-6e-05	4e-05	-5e-05	-1e-05	-1e-05	-1e-05	0
1038	-1e-05	-3e-05	-6e-05	4e-05	-5e-05	-1e-05	-1e-05	-1e-05	0
1039	-1e-05	-3e-05	-6e-05	4e-05	-5e-05	-1e-05	-1e-05	-1e-05	0
1040	-1e-05	-3e-05	-6e-05	4e-05	-5e-05	-1e-05	-1e-05	-1e-05	0
1041	-1e-05	-3e-05	-6e-05	4e-05	-5e-05	-1e-05	-1e-05	-1e-05	0
1042	-1e-05	-3e-05	-6e-05	4e-05	-5e-05	-1e-05	-1e-05	-1e-05	0
1043	-1e-05	-3e-05	-6e-05	4e-05	-5e-05	-1e-05	-1e-05	-1e-05	0
1044	-1e-05	-3e-05	-6e-05	4e-05	-5e-05	-1e-05	-1e-05	-1e-05	0
1045	-1e-05	-4e-05	-0.00056	-2e-05	0	1e-05	1e-05	-1e-05	0
1046	1e-05	2e-05	0.00014	9e-05	4e-05	0	-1e-05	0	0
1047	1e-05	2e-05	0.00014	9e-05	4e-05	0	-1e-05	0	0
1048	1e-05	2e-05	0.00014	9e-05	4e-05	0	-1e-05	0	0
1049	1e-05	2e-05	0.00014	9e-05	4e-05	0	-1e-05	0	0
1050	1e-05	2e-05	0.00014	9e-05	4e-05	0	-1e-05	0	0
1051	1e-05	2e-05	0.00014	9e-05	4e-05	0	-1e-05	0	0
1052	1e-05	2e-05	0.00014	9e-05	4e-05	0	-1e-05	0	0
1053	1e-05	2e-05	0.00014	9e-05	4e-05	0	-1e-05	0	0
1054	1e-05	2e-05	0.00014	9e-05	4e-05	0	-1e-05	0	0
1055	1e-05	2e-05	0.00014	9e-05	4e-05	0	-1e-05	0	0
1056	1e-05	2e-05	0.00014	9e-05	4e-05	0	-1e-05	0	0
1057	1e-05	2e-05	0.00014	9e-05	4e-05	0	-1e-05	0	0
1058	1e-05	2e-05	0.00014	9e-05	4e-05	0	-1e-05	0	0
1059	-1e-05	1e-05	0.00018	1e-05	-1e-05	-1e-05	0	-1e-05	0
1060	-1e-05	-1e-05	-3e-05	0	-1e-05	-1e-05	-2e-05	-1e-05	0
1061	-1e-05	-1e-05	-3e-05	0	-1e-05	-1e-05	-2e-05	-1e-05	0
1062	-1e-05	-1e-05	-3e-05	0	-1e-05	-1e-05	-2e-05	-1e-05	0
1063	-1e-05	-1e-05	-3e-05	0	-1e-05	-1e-05	-2e-05	-1e-05	0
1064	-1e-05	-1e-05	-3e-05	0	-1e-05	-1e-05	-2e-05	-1e-05	0
1065	-1e-05	-1e-05	-3e-05	0	-1e-05	-1e-05	-2e-05	-1e-05	0
1066	-1e-05	-1e-05	-3e-05	0	-1e-05	-1e-05	-2e-05	-1e-05	0
1067	-1e-05	-1e-05	-3e-05	0	-1e-05	-1e-05	-2e-05	-1e-05	0
1068	-1e-05	-1e-05	-3e-05	0	-1e-05	-1e-05	-2e-05	-1e-05	0
1069	-1e-05	-1e-05	-3e-05	0	-1e-05	-1e-05	-2e-05	-1e-05	0
1070	-1e-05	-1e-05	-3e-05	0	-1e-05	-1e-05	-2e-05	-1e-05	0
1071	-1e-05	-1e-05	-3e-05	0	-1e-05	-1e-05	-2e-05	-1e-05	0
1072	-1e-05	-1e-05	-3e-05	0	-1e-05	-1e-05	-2e-05	-1e-05	0
1073	-1e-05	-1e-05	-3e-05	0	-1e-05	-1e-05	-2e-05	-1e-05	0
1074	-1e-05	-1e-05	-3e-05	0	-1e-05	-1e-05	-2e-05	-1e-05	0
1075	-1e-05	-1e-05	-3e-05	0	-1e-05	-1e-05	-2e-05	-1e-05	0
1076	-1e-05	-1e-05	-3e-05	0	-1e-05	-1e-05	-2e-05	-1e-05	0
1077	-1e-05	-1e-05	-3e-05	0	-1e-05	-1e-05	-2e-05	-1e-05	0
1078	-1e-05	-1e-05	-3e-05	0	-1e-05	-1e-05	-2e-05	-1e-05	0
1079	-1e-05	-1e-05	-3e-05	0	-1e-05	-1e-05	-2e-05	-1e-05	0
1080	-1e-05	-1e-05	-3e-05	0	-1e-05	-1e-05	-2e-05	-1e-05	0
1081	-1e-05	-1e-05	-3e-05	0	-1e-05	-1e-05	-2e-05	-1e-05	0
1082	0	0	-0.00017	-0.00015	-3e-05	2e-05	2e-05	2e-05	0
1083	1e-05	-2e-05	0	0	-1e-05	0	0	1e-05	0
1084	1e-05	-2e-05	0	0	-1e-05	0	0	1e-05	0
1085	1e-05	-2e-05	0	0	-1e-05	0	0	1e-05	0
1086	1e-05	-2e-05	0	0	-1e-05	0	0	1e-05	0
1088	1e-05	-2e-05	0	0	-1e-05	0	0	1e-05	0
1089	1e-05	-2e-05	0	0	-1e-05	0	0	1e-05	0
1090	1e-05	-2e-05	0	0	-1e-05	0	0	1e-05	0
1091	1e-05	-2e-05	0	0	-1e-05	0	0	1e-05	0
1092	1e-05	-2e-05	0	0	-1e-05	0	0	1e-05	0
1093	1e-05	-2e-05	0	0	-1e-05	0	0	1e-05	0
1094	1e-05	-2e-05	0	0	-1e-05	0	0	1e-05	0
1095	1e-05	-2e-05	0	0	-1e-05	0	0	1e-05	0
1096	1e-05	-2e-05	0	0	-1e-05	0	0	1e-05	0
1097	1e-05	-2e-05	0	0	-1e-05	0	0	1e-05	0
1098	1e-05	-2e-05	0	0	-1e-05	0	0	1e-05	0
1099	1e-05	-2e-05	0	0	-1e-05	0	0	1e-05	0
1100	1e-05	-2e-05	0	0	-1e-05	0	0	1e-05	0
1101	1e-05	-2e-05	0	0	-1e-05	0	0	1e-05	0
1102	1e-05	-2e-05	0	0	-1e-05	0	0	1e-05	0
1103	1e-05	-2e-05	0	0	-1e-05	0	0	1e-05	0
1104	1e-05	-2e-05	0	0	-1e-05	0	0	1e-05	0
1105	1e-05	-2e-05	0	0	-1e-05	0	0	1e-05	0
1106	0	-3e-05	-4e-05	-9e-05	-5e-05	-1e-05	0	0	0
1107	-1e-05	-1e-05	0.0001	-1e-05	-3e-05	0	-1e-05	-2e-05	0
1108	-1e-05	-1e-05	0.0001	-1e-05	-3e-05	0	-1e-05	-2e-05	0
1109	-1e-05	-1e-05	0.0001	-1e-05	-3e-05	0	-1e-05	-2e-05	0
1110	-1e-05	-1e-05	0.0001	-1e-05	-3e-05	0	-1e-05	-2e-05	0
1111	-1e-05	-1e-05	0.0001	-1e-05	-3e-05	0	-1e-05	-2e-05	0
1112	-1e-05	-1e-05	0.0001	-1e-05	-3e-05	0	-1e-05	-2e-05	0
1113	-1e-05	-1e-05	0.0001	-1e-05	-3e-05	0	-1e-05	-2e-05	0
1114	-1e-05	-1e-05	0.0001	-1e-05	-3e-05	0	-1e-05	-2e-05	0
1115	-1e-05	-1e-05	0.0001	-1e-05	-3e-05	0	-1e-05	-2e-05	0
1116	-1e-05	-1e-05	0.0001	-1e-05	-3e-05	0	-1e-05	-2e-05	0
1117	-1e-05	-1e-05	0.0001	-1e-05	-3e-05	0	-1e-05	-2e-05	0
1118	-1e-05	-1e-05	0.0001	-1e-05	-3e-05	0	-1e-05	-2e-05	0
1119	-2e-05	-3e-05	-0.00035	-5e-05	0.0001	5e-05	3e-05	-1e-05	0
1120	-1e-05	0	-0.00011	-9e-05	-4e-05	-2e-05	-2e-05	0	0
1121	-1e-05	0	-0.00011	-9e-05	-4e-05	-2e-05	-2e-05	0	0
1122	-1e-05	0	-0.00011	-9e-05	-4e-05	-2e-05	-2e-05	0	0
1123	-1e-05	0	-0.00011	-9e-05	-4e-05	-2e-05	-2e-05	0	0
1124	-1e-05	0	-0.00011	-9e-05	-4e-05	-2e-05	-2e-05	0	0
1125	-1e-05	0	-0.00011	-9e-05	-4e-05	-2e-05	-2e-05	0	0
1126	-1e-05	0	-0.00011	-9e-05	-4e-05	-2e-05	-2e-05	0	0
1127	-1e-05	0	-0.00011	-9e-05	-4e-05	-2e-05	-2e-05	0	0
1128	-1e-05	0	-0.00011	-9e-05	-4e-05	-2e-05	-2e-05	0	0
1129	-1e-05	0	-0.00011	-9e-05	-4e-05	-2e-05	-2e-05	0	0
1130	-1e-05	0	-0.00011	-9e-05	-4e-05	-2e-05	-2e-05	0	0
1131	-1e-05	0	-0.00011	-9e-05	-4e-05	-2e-05	-2e-05	0	0
1132	-1e-05	0	-0.00011	-9e-05	-4e-05	-2e-05	-2e-05	0	0
1133	-1e-05	0	-0.00011	-9e-05	-4e-05	-2e-05	-2e-05	0	0
1134	-1e-05	0	-0.00011	-9e-05	-4e-05	-2e-05	-2e-05	0	0
1135	-1e-05	0	-0.00011	-9e-05	-4e-05	-2e-05	-2e-05	0	0
1136	-1e-05	0	-0.00011	-9e-05	-4e-05	-2e-05	-2e-05	0	0
1138	-1e-05	0	-0.00011	-9e-05	-4e-05	-2e-05	-2e-05	0	0
1139	-1e-05	0	-0.00011	-9e-05	-4e-05	-2e-05	-2e-05	0	0
1140	-1e-05	0	-0.00011	-9e-05	-4e-05	-2e-05	-2e-05	0	0
1141	-1e-05	0	-0.00011	-9e-05	-4e-05	-2e-05	-2e-05	0	0
1142	-2e-05	-1e-05	0.00011	0	1e-05	0	-2e-05	0	0
1143	0	0	-0.00016	-8e-05	0	-2e-05	-1e-05	-2e-05	0
1144	0	0	-0.00016	-8e-05	0	-2e-05	-1e-05	-2e-05	0
1145	0	0	-0.00016	-8e-05	0	-2e-05	-1e-05	-2e-05	0
1146	0	0	-0.00016	-8e-05	0	-2e-05	-1e-05	-2e-05	0
1147	0	0	-0.00016	-8e-05	0	-2e-05	-1e-05	-2e-05	0
1148	0	0	-0.00016	-8e-05	0	-2e-05	-1e-05	-2e-05	0
1149	0	0	-0.00016	-8e-05	0	-2e-05	-1e-05	-2e-05	0
1150	0	0	-0.00016	-8e-05	0	-2e-05	-1e-05	-2e-05	0
1151	0	0	-0.00016	-8e-05	0	-2e-05	-1e-05	-2e-05	0
1152	0	0	-0.00016	-8e-05	0	-2e-05	-1e-05	-2e-05	0
1153	0	0	-0.00016	-8e-05	0	-2e-05	-1e-05	-2e-05	0
1154	0	0	-0.00016	-8e-05	0	-2e-05	-1e-05	-2e-05	0
1155	0	0	-0.00016	-8e-05	0	-2e-05	-1e-05	-2e-05	0
1156	0	0	-0.00016	-8e-05	0	-2e-05	-1e-05	-2e-05	0
1157	0	0	-0.00016	-8e-05	0	-2e-05	-1e-05	-2e-05	0
1158	0	0	-0.00016	-8e-05	0	-2e-05	-1e-05	-2e-05	0
1160	0	0	-0.00016	-8e-05	0	-2e-05	-1e-05	-2e-05	0
1161	0	0	-0.00016	-8e-05	0	-2e-05	-1e-05	-2e-05	0
1162	0	0	-0.00016	-8e-05	0	-2e-05	-1e-05	-2e-05	0
1163	0	0	-0.00016	-8e-05	0	-2e-05	-1e-05	-2e-05	0
1164	-1e-05	-2e-05	8e-05	1e-05	1e-05	3e-05	1e-05	1e-05	0
1165	-1e-05	-2e-05	8e-05	1e-05	1e-05	3e-05	1e-05	1e-05	0
1166	-1e-05	-2e-05	8e-05	1e-05	1e-05	3e-05	1e-05	1e-05	0
1167	-1e-05	-2e-05	8e-05	1e-05	1e-05	3e-05	1e-05	1e-05	0
1168	-1e-05	-2e-05	8e-05	1e-05	1e-05	3e-05	1e-05	1e-05	0
1169	-1e-05	-2e-05	8e-05	1e-05	1e-05	3e-05	1e-05	1e-05	0
1170	-1e-05	-2e-05	8e-05	1e-05	1e-05	3e-05	1e-05	1e-05	0
1171	-1e-05	-2e-05	8e-05	1e-05	1e-05	3e-05	1e-05	1e-05	0
1172	-1e-05	-3e-05	-0.00018	-3e-05	0	1e-05	2e-05	-2e-05	0
1173	-1e-05	-3e-05	-0.00018	-3e-05	0	1e-05	2e-05	-2e-05	0
1174	-1e-05	-3e-05	-0.00018	-3e-05	0	1e-05	2e-05	-2e-05	0
1175	-1e-05	-3e-05	-0.00018	-3e-05	0	1e-05	2e-05	-2e-05	0
1176	-1e-05	-3e-05	-0.00018	-3e-05	0	1e-05	2e-05	-2e-05	0
1177	-1e-05	-3e-05	-0.00018	-3e-05	0	1e-05	2e-05	-2e-05	0
1178	-1e-05	-3e-05	-0.00018	-3e-05	0	1e-05	2e-05	-2e-05	0
1179	-1e-05	-3e-05	-0.00018	-3e-05	0	1e-05	2e-05	-2e-05	0
1180	-1e-05	-2e-05	-5e-05	-5e-05	-3e-05	-1e-05	-2e-05	-3e-05	0
1181	-1e-05	-2e-05	-5e-05	-5e-05	-3e-05	-1e-05	-2e-05	-3e-05	0
1182	-1e-05	-2e-05	-5e-05	-5e-05	-3e-05	-1e-05	-2e-05	-3e-05	0
1183	-1e-05	-2e-05	-5e-05	-5e-05	-3e-05	-1e-05	-2e-05	-3e-05	0
1184	-1e-05	-2e-05	-5e-05	-5e-05	-3e-05	-1e-05	-2e-05	-3e-05	0
1185	-1e-05	-2e-05	-5e-05	-5e-05	-3e-05	-1e-05	-2e-05	-3e-05	0
1186	-1e-05	-2e-05	-5e-05	-5e-05	-3e-05	-1e-05	-2e-05	-3e-05	0
1188	-1e-05	-2e-05	-5e-05	-5e-05	-3e-05	-1e-05	-2e-05	-3e-05	0
1189	-1e-05	-2e-05	-5e-05	-5e-05	-3e-05	-1e-05	-2e-05	-3e-05	0
1190	-1e-05	-2e-05	-5e-05	-5e-05	-3e-05	-1e-05	-2e-05	-3e-05	0
1191	-1e-05	-2e-05	-5e-05	-5e-05	-3e-05	-1e-05	-2e-05	-3e-05	0
1192	-1e-05	-2e-05	-5e-05	-5e-05	-3e-05	-1e-05	-2e-05	-3e-05	0
1193	-1e-05	-2e-05	-5e-05	-5e-05	-3e-05	-1e-05	-2e-05	-3e-05	0
1194	-1e-05	-2e-05	-5e-05	-5e-05	-3e-05	-1e-05	-2e-05	-3e-05	0
1195	-1e-05	-2e-05	-5e-05	-5e-05	-3e-05	-1e-05	-2e-05	-3e-05	0
1196	-1e-05	-2e-05	-5e-05	-5e-05	-3e-05	-1e-05	-2e-05	-3e-05	0
1197	-1e-05	-2e-05	-5e-05	-5e-05	-3e-05	-1e-05	-2e-05	-3e-05	0
1198	-1e-05	-2e-05	-5e-05	-5e-05	-3e-05	-1e-05	-2e-05	-3e-05	0
1199	-1e-05	-2e-05	-5e-05	-5e-05	-3e-05	-1e-05	-2e-05	-3e-05	0
1200	-1e-05	-2e-05	-5e-05	-5e-05	-3e-05	-1e-05	-2e-05	-3e-05	0
1201	-1e-05	-2e-05	-5e-05	-5e-05	-3e-05	-1e-05	-2e-05	-3e-05	0
1202	-2e-05	-1e-05	-5e-05	1e-05	1e-05	-3e-05	-1e-05	-1e-05	0
1203	0	-2e-05	0.00011	3e-05	-1e-05	-3e-05	-4e-05	-1e-05	0
1204	0	-2e-05	0.00011	3e-05	-1e-05	-3e-05	-4e-05	-1e-05	0
1205	0	-2e-05	0.00011	3e-05	-1e-05	-3e-05	-4e-05	-1e-05	0
1206	0	-2e-05	0.00011	3e-05	-1e-05	-3e-05	-4e-05	-1e-05	0
1207	0	-2e-05	0.00011	3e-05	-1e-05	-3e-05	-4e-05	-1e-05	0
1208	0	-2e-05	0.00011	3e-05	-1e-05	-3e-05	-4e-05	-1e-05	0
1209	0	-2e-05	0.00011	3e-05	-1e-05	-3e-05	-4e-05	-1e-05	0
1210	0	-2e-05	0.00011	3e-05	-1e-05	-3e-05	-4e-05	-1e-05	0
1211	0	-2e-05	0.00011	3e-05	-1e-05	-3e-05	-4e-05	-1e-05	0
1212	0	-2e-05	0.00011	3e-05	-1e-05	-3e-05	-4e-05	-1e-05	0
1213	0	-2e-05	0.00011	3e-05	-1e-05	-3e-05	-4e-05	-1e-05	0
1214	0	-2e-05	0.00011	3e-05	-1e-05	-3e-05	-4e-05	-1e-05	0
1215	0	-2e-05	0.00011	3e-05	-1e-05	-3e-05	-4e-05	-1e-05	0
1216	-1e-05	1e-05	1e-05	0	-1e-05	-2e-05	-2e-05	-2e-05	0
1218	-1e-05	1e-05	1e-05	0	-1e-05	-2e-05	-2e-05	-2e-05	0
1219	-1e-05	1e-05	1e-05	0	-1e-05	-2e-05	-2e-05	-2e-05	0
1220	-1e-05	1e-05	1e-05	0	-1e-05	-2e-05	-2e-05	-2e-05	0
1221	-1e-05	1e-05	1e-05	0	-1e-05	-2e-05	-2e-05	-2e-05	0
1222	-1e-05	1e-05	1e-05	0	-1e-05	-2e-05	-2e-05	-2e-05	0
1223	-1e-05	1e-05	1e-05	0	-1e-05	-2e-05	-2e-05	-2e-05	0
1224	-1e-05	1e-05	1e-05	0	-1e-05	-2e-05	-2e-05	-2e-05	0
1225	-1e-05	2e-05	-5e-05	-9e-05	2e-05	6e-05	1e-05	1e-05	0
1226	-1e-05	2e-05	-5e-05	-9e-05	2e-05	6e-05	1e-05	1e-05	0
1227	-1e-05	2e-05	-5e-05	-9e-05	2e-05	6e-05	1e-05	1e-05	0
1228	-1e-05	2e-05	-5e-05	-9e-05	2e-05	6e-05	1e-05	1e-05	0
1229	-1e-05	2e-05	-5e-05	-9e-05	2e-05	6e-05	1e-05	1e-05	0
1230	-1e-05	2e-05	-5e-05	-9e-05	2e-05	6e-05	1e-05	1e-05	0
1231	-1e-05	2e-05	-5e-05	-9e-05	2e-05	6e-05	1e-05	1e-05	0
1232	-1e-05	2e-05	-5e-05	-9e-05	2e-05	6e-05	1e-05	1e-05	0
1233	-1e-05	2e-05	-5e-05	-9e-05	2e-05	6e-05	1e-05	1e-05	0
1234	-1e-05	2e-05	-5e-05	-9e-05	2e-05	6e-05	1e-05	1e-05	0
1235	-1e-05	2e-05	-5e-05	-9e-05	2e-05	6e-05	1e-05	1e-05	0
1236	-1e-05	2e-05	-5e-05	-9e-05	2e-05	6e-05	1e-05	1e-05	0
1239	-3e-05	-3e-05	-6e-05	-6e-05	-2e-05	0	-1e-05	1e-05	0
1240	-3e-05	-3e-05	-6e-05	-6e-05	-2e-05	0	-1e-05	1e-05	0
1241	-3e-05	-3e-05	-6e-05	-6e-05	-2e-05	0	-1e-05	1e-05	0
1242	-3e-05	-3e-05	-6e-05	-6e-05	-2e-05	0	-1e-05	1e-05	0
1243	-3e-05	-3e-05	-6e-05	-6e-05	-2e-05	0	-1e-05	1e-05	0
1244	-3e-05	-3e-05	-6e-05	-6e-05	-2e-05	0	-1e-05	1e-05	0
1245	-3e-05	-3e-05	-6e-05	-6e-05	-2e-05	0	-1e-05	1e-05	0
1246	-3e-05	-3e-05	-6e-05	-6e-05	-2e-05	0	-1e-05	1e-05	0
1247	-3e-05	-3e-05	-6e-05	-6e-05	-2e-05	0	-1e-05	1e-05	0
1248	-3e-05	-3e-05	-6e-05	-6e-05	-2e-05	0	-1e-05	1e-05	0
1249	-3e-05	-3e-05	-6e-05	-6e-05	-2e-05	0	-1e-05	1e-05	0
1250	-3e-05	-3e-05	-6e-05	-6e-05	-2e-05	0	-1e-05	1e-05	0
1251	-3e-05	-3e-05	-6e-05	-6e-05	-2e-05	0	-1e-05	1e-05	0
1252	-3e-05	-3e-05	-6e-05	-6e-05	-2e-05	0	-1e-05	1e-05	0
1253	-3e-05	-3e-05	-6e-05	-6e-05	-2e-05	0	-1e-05	1e-05	0
1254	-1e-05	-1e-05	-1e-05	1e-05	-2e-05	0	0	-2e-05	0
1255	0	4e-05	0.0003	0.00021	0	-2e-05	0	1e-05	0
1256	0	4e-05	0.0003	0.00021	0	-2e-05	0	1e-05	0
1257	0	4e-05	0.0003	0.00021	0	-2e-05	0	1e-05	0
1258	0	4e-05	0.0003	0.00021	0	-2e-05	0	1e-05	0
1259	0	4e-05	0.0003	0.00021	0	-2e-05	0	1e-05	0
1260	0	4e-05	0.0003	0.00021	0	-2e-05	0	1e-05	0
1261	0	4e-05	0.0003	0.00021	0	-2e-05	0	1e-05	0
1262	0	-1e-05	0.00012	0	1e-05	0	0	-2e-05	0
1263	-1e-05	-5e-05	-1e-05	-1e-05	-4e-05	-3e-05	-1e-05	-2e-05	0
1264	-1e-05	-5e-05	-1e-05	-1e-05	-4e-05	-3e-05	-1e-05	-2e-05	0
1265	-1e-05	-5e-05	-1e-05	-1e-05	-4e-05	-3e-05	-1e-05	-2e-05	0
1266	-1e-05	-5e-05	-1e-05	-1e-05	-4e-05	-3e-05	-1e-05	-2e-05	0
1267	-1e-05	-5e-05	-1e-05	-1e-05	-4e-05	-3e-05	-1e-05	-2e-05	0
1268	-1e-05	-5e-05	-1e-05	-1e-05	-4e-05	-3e-05	-1e-05	-2e-05	0
1269	-1e-05	-5e-05	-1e-05	-1e-05	-4e-05	-3e-05	-1e-05	-2e-05	0
1270	-1e-05	-5e-05	-1e-05	-1e-05	-4e-05	-3e-05	-1e-05	-2e-05	0
1271	-1e-05	-5e-05	-1e-05	-1e-05	-4e-05	-3e-05	-1e-05	-2e-05	0
1272	-1e-05	-5e-05	-1e-05	-1e-05	-4e-05	-3e-05	-1e-05	-2e-05	0
1273	-1e-05	-5e-05	-1e-05	-1e-05	-4e-05	-3e-05	-1e-05	-2e-05	0
1274	-1e-05	-5e-05	-1e-05	-1e-05	-4e-05	-3e-05	-1e-05	-2e-05	0
1275	-1e-05	-5e-05	-1e-05	-1e-05	-4e-05	-3e-05	-1e-05	-2e-05	0
1276	-1e-05	-5e-05	-1e-05	-1e-05	-4e-05	-3e-05	-1e-05	-2e-05	0
1277	-1e-05	-5e-05	-1e-05	-1e-05	-4e-05	-3e-05	-1e-05	-2e-05	0
1278	-1e-05	-5e-05	-1e-05	-1e-05	-4e-05	-3e-05	-1e-05	-2e-05	0
1279	-1e-05	-5e-05	-1e-05	-1e-05	-4e-05	-3e-05	-1e-05	-2e-05	0
1280	-1e-05	-5e-05	-1e-05	-1e-05	-4e-05	-3e-05	-1e-05	-2e-05	0
1281	-1e-05	-5e-05	-1e-05	-1e-05	-4e-05	-3e-05	-1e-05	-2e-05	0
1282	-1e-05	-5e-05	-1e-05	-1e-05	-4e-05	-3e-05	-1e-05	-2e-05	0
1283	-1e-05	-5e-05	-1e-05	-1e-05	-4e-05	-3e-05	-1e-05	-2e-05	0
1284	-1e-05	-5e-05	-1e-05	-1e-05	-4e-05	-3e-05	-1e-05	-2e-05	0
1285	-2e-05	-1e-05	-6e-05	1e-05	3e-05	2e-05	-2e-05	0	0
1286	-2e-05	-1e-05	-6e-05	1e-05	3e-05	2e-05	-2e-05	0	0
1288	-2e-05	-1e-05	-6e-05	1e-05	3e-05	2e-05	-2e-05	0	0
1289	0	2e-05	4e-05	1e-05	0	-1e-05	-1e-05	-1e-05	0
1290	0	2e-05	4e-05	1e-05	0	-1e-05	-1e-05	-1e-05	0
1291	0	2e-05	4e-05	1e-05	0	-1e-05	-1e-05	-1e-05	0
1292	0	2e-05	4e-05	1e-05	0	-1e-05	-1e-05	-1e-05	0
1293	0	2e-05	4e-05	1e-05	0	-1e-05	-1e-05	-1e-05	0
1294	0	2e-05	4e-05	1e-05	0	-1e-05	-1e-05	-1e-05	0
1295	0	2e-05	4e-05	1e-05	0	-1e-05	-1e-05	-1e-05	0
1296	0	2e-05	4e-05	1e-05	0	-1e-05	-1e-05	-1e-05	0
1297	0	2e-05	4e-05	1e-05	0	-1e-05	-1e-05	-1e-05	0
1298	0	2e-05	4e-05	1e-05	0	-1e-05	-1e-05	-1e-05	0
1299	0	2e-05	4e-05	1e-05	0	-1e-05	-1e-05	-1e-05	0
1300	-2e-05	-3e-05	-5e-05	-2e-05	1e-05	1e-05	1e-05	-2e-05	0
1301	-2e-05	-3e-05	-5e-05	-2e-05	1e-05	1e-05	1e-05	-2e-05	0
1302	-2e-05	-3e-05	-5e-05	-2e-05	1e-05	1e-05	1e-05	-2e-05	0
1303	-2e-05	-3e-05	-5e-05	-2e-05	1e-05	1e-05	1e-05	-2e-05	0
1304	-2e-05	-3e-05	-5e-05	-2e-05	1e-05	1e-05	1e-05	-2e-05	0
1305	-2e-05	-3e-05	-5e-05	-2e-05	1e-05	1e-05	1e-05	-2e-05	0
1306	-2e-05	-3e-05	-5e-05	-2e-05	1e-05	1e-05	1e-05	-2e-05	0
1307	-2e-05	-3e-05	-5e-05	-2e-05	1e-05	1e-05	1e-05	-2e-05	0
1308	-2e-05	-3e-05	-5e-05	-2e-05	1e-05	1e-05	1e-05	-2e-05	0
1309	-2e-05	-3e-05	-5e-05	-2e-05	1e-05	1e-05	1e-05	-2e-05	0
1310	-2e-05	-3e-05	-5e-05	-2e-05	1e-05	1e-05	1e-05	-2e-05	0
1311	-2e-05	-3e-05	-5e-05	-2e-05	1e-05	1e-05	1e-05	-2e-05	0
1312	-2e-05	-3e-05	-5e-05	-2e-05	1e-05	1e-05	1e-05	-2e-05	0
1313	-2e-05	-3e-05	-5e-05	-2e-05	1e-05	1e-05	1e-05	-2e-05	0
1314	-2e-05	-3e-05	-5e-05	-2e-05	1e-05	1e-05	1e-05	-2e-05	0
1315	-2e-05	-3e-05	-5e-05	-2e-05	1e-05	1e-05	1e-05	-2e-05	0
1316	-2e-05	-3e-05	-5e-05	-2e-05	1e-05	1e-05	1e-05	-2e-05	0
1317	-2e-05	-3e-05	-5e-05	-2e-05	1e-05	1e-05	1e-05	-2e-05	0
1318	-2e-05	-3e-05	-5e-05	-2e-05	1e-05	1e-05	1e-05	-2e-05	0
1319	-2e-05	-3e-05	-5e-05	-2e-05	1e-05	1e-05	1e-05	-2e-05	0
1320	-2e-05	-3e-05	-5e-05	-2e-05	1e-05	1e-05	1e-05	-2e-05	0
1321	-2e-05	-3e-05	-5e-05	-2e-05	1e-05	1e-05	1e-05	-2e-05	0
1322	-2e-05	-1e-05	-2e-05	-1e-05	-1e-05	-1e-05	0	-4e-05	0
1323	-2e-05	-1e-05	4e-05	-1e-05	-1e-05	-2e-05	-2e-05	0	0
1324	-2e-05	-1e-05	4e-05	-1e-05	-1e-05	-2e-05	-2e-05	0	0
1325	-2e-05	-1e-05	4e-05	-1e-05	-1e-05	-2e-05	-2e-05	0	0
1326	-2e-05	-1e-05	4e-05	-1e-05	-1e-05	-2e-05	-2e-05	0	0
1327	-2e-05	-1e-05	4e-05	-1e-05	-1e-05	-2e-05	-2e-05	0	0
1328	-2e-05	-1e-05	4e-05	-1e-05	-1e-05	-2e-05	-2e-05	0	0
1329	-2e-05	-1e-05	4e-05	-1e-05	-1e-05	-2e-05	-2e-05	0	0
1330	-2e-05	-1e-05	4e-05	-1e-05	-1e-05	-2e-05	-2e-05	0	0
1331	-2e-05	-1e-05	4e-05	-1e-05	-1e-05	-2e-05	-2e-05	0	0
1332	-2e-05	-1e-05	4e-05	-1e-05	-1e-05	-2e-05	-2e-05	0	0
1333	-2e-05	-1e-05	4e-05	-1e-05	-1e-05	-2e-05	-2e-05	0	0
1334	-2e-05	-1e-05	4e-05	-1e-05	-1e-05	-2e-05	-2e-05	0	0
1335	-2e-05	-1e-05	4e-05	-1e-05	-1e-05	-2e-05	-2e-05	0	0
1336	1e-05	2e-05	7e-05	-5e-05	0	-1e-05	-1e-05	1e-05	0
1338	1e-05	2e-05	7e-05	-5e-05	0	-1e-05	-1e-05	1e-05	0
1339	1e-05	2e-05	7e-05	-5e-05	0	-1e-05	-1e-05	1e-05	0
1340	1e-05	2e-05	7e-05	-5e-05	0	-1e-05	-1e-05	1e-05	0
1341	1e-05	2e-05	7e-05	-5e-05	0	-1e-05	-1e-05	1e-05	0
1342	1e-05	2e-05	7e-05	-5e-05	0	-1e-05	-1e-05	1e-05	0
1343	1e-05	2e-05	7e-05	-5e-05	0	-1e-05	-1e-05	1e-05	0
1344	1e-05	2e-05	7e-05	-5e-05	0	-1e-05	-1e-05	1e-05	0
1345	-1e-05	-2e-05	-3e-05	-3e-05	0	-1e-05	-3e-05	-1e-05	0
1346	-1e-05	-2e-05	-3e-05	-3e-05	0	-1e-05	-3e-05	-1e-05	0
1347	-1e-05	-2e-05	-3e-05	-3e-05	0	-1e-05	-3e-05	-1e-05	0
1348	-1e-05	-2e-05	-3e-05	-3e-05	0	-1e-05	-3e-05	-1e-05	0
1349	-1e-05	-2e-05	-3e-05	-3e-05	0	-1e-05	-3e-05	-1e-05	0
1350	-1e-05	-2e-05	-3e-05	-3e-05	0	-1e-05	-3e-05	-1e-05	0
1351	-1e-05	-2e-05	-3e-05	-3e-05	0	-1e-05	-3e-05	-1e-05	0
1352	-1e-05	-2e-05	-3e-05	-3e-05	0	-1e-05	-3e-05	-1e-05	0
1353	-1e-05	-2e-05	-3e-05	-3e-05	0	-1e-05	-3e-05	-1e-05	0
1354	-1e-05	-2e-05	-3e-05	-3e-05	0	-1e-05	-3e-05	-1e-05	0
1355	-1e-05	-2e-05	-3e-05	-3e-05	0	-1e-05	-3e-05	-1e-05	0
1356	-1e-05	-2e-05	-3e-05	-3e-05	0	-1e-05	-3e-05	-1e-05	0
1357	-1e-05	-2e-05	-3e-05	-3e-05	0	-1e-05	-3e-05	-1e-05	0
1358	-1e-05	-2e-05	-3e-05	-3e-05	0	-1e-05	-3e-05	-1e-05	0
1359	-1e-05	-2e-05	-3e-05	-3e-05	0	-1e-05	-3e-05	-1e-05	0
1360	-1e-05	-2e-05	1e-05	1e-05	-2e-05	0	-2e-05	-2e-05	0
1361	-1e-05	-2e-05	1e-05	1e-05	-2e-05	0	-2e-05	-2e-05	0
1362	-1e-05	-2e-05	1e-05	1e-05	-2e-05	0	-2e-05	-2e-05	0
1363	-1e-05	-2e-05	1e-05	1e-05	-2e-05	0	-2e-05	-2e-05	0
1364	-1e-05	-2e-05	1e-05	1e-05	-2e-05	0	-2e-05	-2e-05	0
1365	-1e-05	-2e-05	1e-05	1e-05	-2e-05	0	-2e-05	-2e-05	0
1366	-1e-05	-2e-05	1e-05	1e-05	-2e-05	0	-2e-05	-2e-05	0
1368	-1e-05	-2e-05	1e-05	1e-05	-2e-05	0	-2e-05	-2e-05	0
1369	-1e-05	-2e-05	1e-05	1e-05	-2e-05	0	-2e-05	-2e-05	0
1370	-1e-05	-2e-05	1e-05	1e-05	-2e-05	0	-2e-05	-2e-05	0
1371	-1e-05	-2e-05	1e-05	1e-05	-2e-05	0	-2e-05	-2e-05	0
1372	-1e-05	-2e-05	1e-05	1e-05	-2e-05	0	-2e-05	-2e-05	0
1373	-1e-05	-2e-05	1e-05	1e-05	-2e-05	0	-2e-05	-2e-05	0
1374	-1e-05	-2e-05	1e-05	1e-05	-2e-05	0	-2e-05	-2e-05	0
1375	-1e-05	-2e-05	1e-05	1e-05	-2e-05	0	-2e-05	-2e-05	0
1377	-1e-05	-2e-05	1e-05	1e-05	-2e-05	0	-2e-05	-2e-05	0
1378	-1e-05	-2e-05	1e-05	1e-05	-2e-05	0	-2e-05	-2e-05	0
1379	-1e-05	-2e-05	1e-05	1e-05	-2e-05	0	-2e-05	-2e-05	0
1380	-1e-05	-2e-05	1e-05	1e-05	-2e-05	0	-2e-05	-2e-05	0
1381	-1e-05	-2e-05	1e-05	1e-05	-2e-05	0	-2e-05	-2e-05	0
1382	1e-05	-1e-05	-7e-05	-3e-05	-4e-05	-6e-05	-1e-05	-2e-05	0
1383	0	1e-05	-1e-05	1e-05	1e-05	1e-05	2e-05	0	0
1384	0	1e-05	-1e-05	1e-05	1e-05	1e-05	2e-05	0	0
1385	0	1e-05	-1e-05	1e-05	1e-05	1e-05	2e-05	0	0
1386	0	1e-05	-1e-05	1e-05	1e-05	1e-05	2e-05	0	0
1388	0	1e-05	-1e-05	1e-05	1e-05	1e-05	2e-05	0	0
1389	0	1e-05	-1e-05	1e-05	1e-05	1e-05	2e-05	0	0
1390	0	1e-05	-1e-05	1e-05	1e-05	1e-05	2e-05	0	0
1391	0	1e-05	-1e-05	1e-05	1e-05	1e-05	2e-05	0	0
1392	0	1e-05	-1e-05	1e-05	1e-05	1e-05	2e-05	0	0
1393	0	1e-05	-1e-05	1e-05	1e-05	1e-05	2e-05	0	0
1394	0	1e-05	-1e-05	1e-05	1e-05	1e-05	2e-05	0	0
1395	0	1e-05	-1e-05	1e-05	1e-05	1e-05	2e-05	0	0
1396	0	1e-05	-1e-05	1e-05	1e-05	1e-05	2e-05	0	0
1397	0	1e-05	-1e-05	1e-05	1e-05	1e-05	2e-05	0	0
1398	0	1e-05	-1e-05	1e-05	1e-05	1e-05	2e-05	0	0
1399	0	1e-05	-1e-05	1e-05	1e-05	1e-05	2e-05	0	0
1400	0	1e-05	-1e-05	1e-05	1e-05	1e-05	2e-05	0	0
1401	0	1e-05	-1e-05	1e-05	1e-05	1e-05	2e-05	0	0
1402	0	1e-05	-1e-05	1e-05	1e-05	1e-05	2e-05	0	0
1403	0	1e-05	-1e-05	1e-05	1e-05	1e-05	2e-05	0	0
1404	0	1e-05	-1e-05	1e-05	1e-05	1e-05	2e-05	0	0
1405	-2e-05	-2e-05	-4e-05	-2e-05	1e-05	1e-05	1e-05	-2e-05	0
1406	0	0	-4e-05	-1e-05	-1e-05	-1e-05	0	-1e-05	0
1407	0	0	-4e-05	-1e-05	-1e-05	-1e-05	0	-1e-05	0
1408	0	0	-4e-05	-1e-05	-1e-05	-1e-05	0	-1e-05	0
1409	0	0	-4e-05	-1e-05	-1e-05	-1e-05	0	-1e-05	0
1410	0	0	-4e-05	-1e-05	-1e-05	-1e-05	0	-1e-05	0
1411	0	0	-4e-05	-1e-05	-1e-05	-1e-05	0	-1e-05	0
1412	0	0	-4e-05	-1e-05	-1e-05	-1e-05	0	-1e-05	0
1413	0	0	-4e-05	-1e-05	-1e-05	-1e-05	0	-1e-05	0
1414	0	0	-4e-05	-1e-05	-1e-05	-1e-05	0	-1e-05	0
1415	0	0	-4e-05	-1e-05	-1e-05	-1e-05	0	-1e-05	0
1416	0	0	-4e-05	-1e-05	-1e-05	-1e-05	0	-1e-05	0
1417	0	0	-4e-05	-1e-05	-1e-05	-1e-05	0	-1e-05	0
1418	0	0	-4e-05	-1e-05	-1e-05	-1e-05	0	-1e-05	0
1419	0	0	-4e-05	-1e-05	-1e-05	-1e-05	0	-1e-05	0
1420	0	-2e-05	-4e-05	-2e-05	0	1e-05	-3e-05	-2e-05	0
1421	0	-2e-05	-4e-05	-2e-05	0	1e-05	-3e-05	-2e-05	0
1422	0	-2e-05	-4e-05	-2e-05	0	1e-05	-3e-05	-2e-05	0
1423	0	-2e-05	-4e-05	-2e-05	0	1e-05	-3e-05	-2e-05	0
1424	0	-2e-05	-4e-05	-2e-05	0	1e-05	-3e-05	-2e-05	0
1425	0	-2e-05	-4e-05	-2e-05	0	1e-05	-3e-05	-2e-05	0
1426	0	-2e-05	-4e-05	-2e-05	0	1e-05	-3e-05	-2e-05	0
1427	0	-2e-05	-4e-05	-2e-05	0	1e-05	-3e-05	-2e-05	0
1428	0	-2e-05	-4e-05	-2e-05	0	1e-05	-3e-05	-2e-05	0
1429	0	-2e-05	-4e-05	-2e-05	0	1e-05	-3e-05	-2e-05	0
1430	0	-2e-05	-4e-05	-2e-05	0	1e-05	-3e-05	-2e-05	0
1431	0	-2e-05	-4e-05	-2e-05	0	1e-05	-3e-05	-2e-05	0
1432	0	-2e-05	-4e-05	-2e-05	0	1e-05	-3e-05	-2e-05	0
1433	0	-2e-05	-4e-05	-2e-05	0	1e-05	-3e-05	-2e-05	0
1434	0	-2e-05	-4e-05	-2e-05	0	1e-05	-3e-05	-2e-05	0
1435	0	-2e-05	-4e-05	-2e-05	0	1e-05	-3e-05	-2e-05	0
1436	0	-2e-05	-4e-05	-2e-05	0	1e-05	-3e-05	-2e-05	0
1438	0	-2e-05	-4e-05	-2e-05	0	1e-05	-3e-05	-2e-05	0
1439	0	-2e-05	-4e-05	-2e-05	0	1e-05	-3e-05	-2e-05	0
1440	0	-2e-05	-4e-05	-2e-05	0	1e-05	-3e-05	-2e-05	0
1441	0	-2e-05	-4e-05	-2e-05	0	1e-05	-3e-05	-2e-05	0
1442	-1e-05	0	-0.0002	-8e-05	0	-1e-05	-3e-05	0	0
1443	-1e-05	-1e-05	1e-05	-1e-05	-1e-05	1e-05	1e-05	0	0
1444	-1e-05	-1e-05	1e-05	-1e-05	-1e-05	1e-05	1e-05	0	0
1445	-1e-05	-1e-05	1e-05	-1e-05	-1e-05	1e-05	1e-05	0	0
1446	-1e-05	-1e-05	1e-05	-1e-05	-1e-05	1e-05	1e-05	0	0
1447	-1e-05	-1e-05	1e-05	-1e-05	-1e-05	1e-05	1e-05	0	0
1448	-1e-05	-1e-05	1e-05	-1e-05	-1e-05	1e-05	1e-05	0	0
1449	-1e-05	-1e-05	1e-05	-1e-05	-1e-05	1e-05	1e-05	0	0
1450	-1e-05	-1e-05	1e-05	-1e-05	-1e-05	1e-05	1e-05	0	0
1451	-1e-05	-1e-05	1e-05	-1e-05	-1e-05	1e-05	1e-05	0	0
1452	-1e-05	-1e-05	1e-05	-1e-05	-1e-05	1e-05	1e-05	0	0
1453	-1e-05	-1e-05	1e-05	-1e-05	-1e-05	1e-05	1e-05	0	0
1454	-1e-05	-1e-05	1e-05	-1e-05	-1e-05	1e-05	1e-05	0	0
1455	-1e-05	-1e-05	1e-05	-1e-05	-1e-05	1e-05	1e-05	0	0
1456	-1e-05	-1e-05	1e-05	-1e-05	-1e-05	1e-05	1e-05	0	0
1457	-1e-05	-1e-05	1e-05	-1e-05	-1e-05	1e-05	1e-05	0	0
1458	-1e-05	-1e-05	1e-05	-1e-05	-1e-05	1e-05	1e-05	0	0
1459	-1e-05	-1e-05	1e-05	-1e-05	-1e-05	1e-05	1e-05	0	0
1460	-1e-05	-1e-05	1e-05	-1e-05	-1e-05	1e-05	1e-05	0	0
1461	-1e-05	-1e-05	1e-05	-1e-05	-1e-05	1e-05	1e-05	0	0
1462	-1e-05	-1e-05	1e-05	-1e-05	-1e-05	1e-05	1e-05	0	0
1463	-1e-05	-1e-05	1e-05	-1e-05	-1e-05	1e-05	1e-05	0	0
1464	-1e-05	-1e-05	1e-05	-1e-05	-1e-05	1e-05	1e-05	0	0
1465	-2e-05	-2e-05	0	3e-05	3e-05	0	1e-05	0	0
1466	0	0	-3e-05	-4e-05	-3e-05	-2e-05	-3e-05	-3e-05	0
1467	0	0	-3e-05	-4e-05	-3e-05	-2e-05	-3e-05	-3e-05	0
1468	0	0	-3e-05	-4e-05	-3e-05	-2e-05	-3e-05	-3e-05	0
1469	0	0	-3e-05	-4e-05	-3e-05	-2e-05	-3e-05	-3e-05	0
1470	0	0	-3e-05	-4e-05	-3e-05	-2e-05	-3e-05	-3e-05	0
1471	0	0	-3e-05	-4e-05	-3e-05	-2e-05	-3e-05	-3e-05	0
1472	0	0	-3e-05	-4e-05	-3e-05	-2e-05	-3e-05	-3e-05	0
1473	0	0	-3e-05	-4e-05	-3e-05	-2e-05	-3e-05	-3e-05	0
1474	0	0	-3e-05	-4e-05	-3e-05	-2e-05	-3e-05	-3e-05	0
1475	0	0	-3e-05	-4e-05	-3e-05	-2e-05	-3e-05	-3e-05	0
1476	0	0	-3e-05	-4e-05	-3e-05	-2e-05	-3e-05	-3e-05	0
1477	0	0	-3e-05	-4e-05	-3e-05	-2e-05	-3e-05	-3e-05	0
1478	0	0	-3e-05	-4e-05	-3e-05	-2e-05	-3e-05	-3e-05	0
1479	0	0	-3e-05	-4e-05	-3e-05	-2e-05	-3e-05	-3e-05	0
1480	-1e-05	-1e-05	-1e-05	-2e-05	-4e-05	-4e-05	-1e-05	-3e-05	0
1481	-1e-05	-1e-05	-1e-05	-2e-05	-4e-05	-4e-05	-1e-05	-3e-05	0
1482	-1e-05	-1e-05	-1e-05	-2e-05	-4e-05	-4e-05	-1e-05	-3e-05	0
1483	-1e-05	-1e-05	-1e-05	-2e-05	-4e-05	-4e-05	-1e-05	-3e-05	0
1484	-1e-05	-1e-05	-1e-05	-2e-05	-4e-05	-4e-05	-1e-05	-3e-05	0
1485	-1e-05	-1e-05	-1e-05	-2e-05	-4e-05	-4e-05	-1e-05	-3e-05	0
1486	-1e-05	-1e-05	-1e-05	-2e-05	-4e-05	-4e-05	-1e-05	-3e-05	0
1488	-1e-05	-1e-05	-1e-05	-2e-05	-4e-05	-4e-05	-1e-05	-3e-05	0
1489	-1e-05	-1e-05	-1e-05	-2e-05	-4e-05	-4e-05	-1e-05	-3e-05	0
1490	-1e-05	-1e-05	-1e-05	-2e-05	-4e-05	-4e-05	-1e-05	-3e-05	0
1491	-1e-05	-1e-05	-1e-05	-2e-05	-4e-05	-4e-05	-1e-05	-3e-05	0
1492	-1e-05	-1e-05	-1e-05	-2e-05	-4e-05	-4e-05	-1e-05	-3e-05	0
1493	-1e-05	-1e-05	-1e-05	-2e-05	-4e-05	-4e-05	-1e-05	-3e-05	0
1494	-1e-05	-1e-05	-1e-05	-2e-05	-4e-05	-4e-05	-1e-05	-3e-05	0
1495	-1e-05	-1e-05	-1e-05	-2e-05	-4e-05	-4e-05	-1e-05	-3e-05	0
1496	-1e-05	-1e-05	-1e-05	-2e-05	-4e-05	-4e-05	-1e-05	-3e-05	0
1497	-1e-05	-1e-05	-1e-05	-2e-05	-4e-05	-4e-05	-1e-05	-3e-05	0
1498	-1e-05	-1e-05	-1e-05	-2e-05	-4e-05	-4e-05	-1e-05	-3e-05	0
1499	-1e-05	-1e-05	-1e-05	-2e-05	-4e-05	-4e-05	-1e-05	-3e-05	0
1500	-1e-05	-1e-05	-1e-05	-2e-05	-4e-05	-4e-05	-1e-05	-3e-05	0
1501	-1e-05	-1e-05	-1e-05	-2e-05	-4e-05	-4e-05	-1e-05	-3e-05	0
1502	-3e-05	-1e-05	2e-05	2e-05	0	-1e-05	0	0	0
1503	-3e-05	0	0	0	1e-05	1e-05	1e-05	2e-05	0
1504	-3e-05	0	0	0	1e-05	1e-05	1e-05	2e-05	0
1505	-3e-05	0	0	0	1e-05	1e-05	1e-05	2e-05	0
1506	-3e-05	0	0	0	1e-05	1e-05	1e-05	2e-05	0
1507	-3e-05	0	0	0	1e-05	1e-05	1e-05	2e-05	0
1508	-3e-05	0	0	0	1e-05	1e-05	1e-05	2e-05	0
1509	-3e-05	0	0	0	1e-05	1e-05	1e-05	2e-05	0
1510	-3e-05	0	0	0	1e-05	1e-05	1e-05	2e-05	0
1511	-3e-05	0	0	0	1e-05	1e-05	1e-05	2e-05	0
1512	-3e-05	0	0	0	1e-05	1e-05	1e-05	2e-05	0
1513	-3e-05	0	0	0	1e-05	1e-05	1e-05	2e-05	0
1514	-3e-05	0	0	0	1e-05	1e-05	1e-05	2e-05	0
1515	-3e-05	0	0	0	1e-05	1e-05	1e-05	2e-05	0
1516	-3e-05	0	0	0	1e-05	1e-05	1e-05	2e-05	0
1517	-3e-05	0	0	0	1e-05	1e-05	1e-05	2e-05	0
1518	-3e-05	0	0	0	1e-05	1e-05	1e-05	2e-05	0
1519	-3e-05	0	0	0	1e-05	1e-05	1e-05	2e-05	0
1520	-3e-05	0	0	0	1e-05	1e-05	1e-05	2e-05	0
1521	-3e-05	0	0	0	1e-05	1e-05	1e-05	2e-05	0
1522	-3e-05	0	0	0	1e-05	1e-05	1e-05	2e-05	0
1523	-3e-05	0	0	0	1e-05	1e-05	1e-05	2e-05	0
1524	-3e-05	0	0	0	1e-05	1e-05	1e-05	2e-05	0
1525	-2e-05	0	-4e-05	-3e-05	-4e-05	-1e-05	-2e-05	0	0
1526	0	-2e-05	-2e-05	0	3e-05	-1e-05	-1e-05	1e-05	0
1527	0	-2e-05	-2e-05	0	3e-05	-1e-05	-1e-05	1e-05	0
1528	0	-2e-05	-2e-05	0	3e-05	-1e-05	-1e-05	1e-05	0
1529	0	-2e-05	-2e-05	0	3e-05	-1e-05	-1e-05	1e-05	0
1530	0	-2e-05	-2e-05	0	3e-05	-1e-05	-1e-05	1e-05	0
1531	0	-2e-05	-2e-05	0	3e-05	-1e-05	-1e-05	1e-05	0
1532	0	-2e-05	-2e-05	0	3e-05	-1e-05	-1e-05	1e-05	0
1533	0	-2e-05	-2e-05	0	3e-05	-1e-05	-1e-05	1e-05	0
1534	0	-2e-05	-2e-05	0	3e-05	-1e-05	-1e-05	1e-05	0
1535	0	-2e-05	-2e-05	0	3e-05	-1e-05	-1e-05	1e-05	0
1536	0	-2e-05	-2e-05	0	3e-05	-1e-05	-1e-05	1e-05	0
1538	0	-2e-05	-2e-05	0	3e-05	-1e-05	-1e-05	1e-05	0
1539	0	-2e-05	-2e-05	0	3e-05	-1e-05	-1e-05	1e-05	0
1540	-2e-05	0	-2e-05	-1e-05	-1e-05	0	0	-2e-05	0
1541	-2e-05	0	-2e-05	-1e-05	-1e-05	0	0	-2e-05	0
1542	-2e-05	0	-2e-05	-1e-05	-1e-05	0	0	-2e-05	0
1543	-2e-05	0	-2e-05	-1e-05	-1e-05	0	0	-2e-05	0
1544	-2e-05	0	-2e-05	-1e-05	-1e-05	0	0	-2e-05	0
1545	-2e-05	0	-2e-05	-1e-05	-1e-05	0	0	-2e-05	0
1546	-2e-05	0	-2e-05	-1e-05	-1e-05	0	0	-2e-05	0
1547	-2e-05	0	-2e-05	-1e-05	-1e-05	0	0	-2e-05	0
1548	-2e-05	0	-2e-05	-1e-05	-1e-05	0	0	-2e-05	0
1549	-2e-05	0	-2e-05	-1e-05	-1e-05	0	0	-2e-05	0
1550	-2e-05	0	-2e-05	-1e-05	-1e-05	0	0	-2e-05	0
1551	-2e-05	0	-2e-05	-1e-05	-1e-05	0	0	-2e-05	0
1552	-2e-05	0	-2e-05	-1e-05	-1e-05	0	0	-2e-05	0
1553	-2e-05	0	-2e-05	-1e-05	-1e-05	0	0	-2e-05	0
1554	-2e-05	0	-2e-05	-1e-05	-1e-05	0	0	-2e-05	0
1555	-2e-05	0	-2e-05	-1e-05	-1e-05	0	0	-2e-05	0
1556	-2e-05	0	-2e-05	-1e-05	-1e-05	0	0	-2e-05	0
1557	-2e-05	0	-2e-05	-1e-05	-1e-05	0	0	-2e-05	0
1558	-2e-05	0	-2e-05	-1e-05	-1e-05	0	0	-2e-05	0
1559	-2e-05	0	-2e-05	-1e-05	-1e-05	0	0	-2e-05	0
1560	-2e-05	0	-2e-05	-1e-05	-1e-05	0	0	-2e-05	0
1561	-2e-05	0	-2e-05	-1e-05	-1e-05	0	0	-2e-05	0
1562	-1e-05	-1e-05	-1e-05	1e-05	-2e-05	0	-2e-05	-1e-05	0
1563	0	-3e-05	0	0	1e-05	-2e-05	1e-05	0	0
1564	0	-3e-05	0	0	1e-05	-2e-05	1e-05	0	0
1565	0	-3e-05	0	0	1e-05	-2e-05	1e-05	0	0
1567	0	-3e-05	0	0	1e-05	-2e-05	1e-05	0	0
1568	0	-3e-05	0	0	1e-05	-2e-05	1e-05	0	0
1569	0	-3e-05	0	0	1e-05	-2e-05	1e-05	0	0
1570	0	-3e-05	0	0	1e-05	-2e-05	1e-05	0	0
1571	0	-3e-05	0	0	1e-05	-2e-05	1e-05	0	0
1572	0	-3e-05	0	0	1e-05	-2e-05	1e-05	0	0
1575	0	-3e-05	0	0	1e-05	-2e-05	1e-05	0	0
1576	0	-3e-05	0	0	1e-05	-2e-05	1e-05	0	0
1577	0	-3e-05	0	0	1e-05	-2e-05	1e-05	0	0
1578	0	-3e-05	0	0	1e-05	-2e-05	1e-05	0	0
1579	0	-3e-05	0	0	1e-05	-2e-05	1e-05	0	0
1580	0	-3e-05	0	0	1e-05	-2e-05	1e-05	0	0
1582	0	-3e-05	0	0	1e-05	-2e-05	1e-05	0	0
1583	0	-3e-05	0	0	1e-05	-2e-05	1e-05	0	0
1584	0	-3e-05	0	0	1e-05	-2e-05	1e-05	0	0
1585	-1e-05	0	1e-05	-1e-05	-4e-05	-3e-05	-1e-05	-1e-05	0
1586	-1e-05	-1e-05	-1e-05	-1e-05	-3e-05	-3e-05	-3e-05	-1e-05	0
1588	-1e-05	-1e-05	-1e-05	-1e-05	-3e-05	-3e-05	-3e-05	-1e-05	0
1589	-1e-05	-1e-05	-1e-05	-1e-05	-3e-05	-3e-05	-3e-05	-1e-05	0
1590	-1e-05	-1e-05	-1e-05	-1e-05	-3e-05	-3e-05	-3e-05	-1e-05	0
1591	-1e-05	-1e-05	-1e-05	-1e-05	-3e-05	-3e-05	-3e-05	-1e-05	0
1592	-1e-05	-1e-05	-1e-05	-1e-05	-3e-05	-3e-05	-3e-05	-1e-05	0
1593	-1e-05	-1e-05	-1e-05	-1e-05	-3e-05	-3e-05	-3e-05	-1e-05	0
1594	-1e-05	-1e-05	-1e-05	-1e-05	-3e-05	-3e-05	-3e-05	-1e-05	0
1595	-1e-05	-1e-05	-1e-05	-1e-05	-3e-05	-3e-05	-3e-05	-1e-05	0
1596	-1e-05	-1e-05	-1e-05	-1e-05	-3e-05	-3e-05	-3e-05	-1e-05	0
1597	-1e-05	-1e-05	-1e-05	-1e-05	-3e-05	-3e-05	-3e-05	-1e-05	0
1598	-1e-05	-1e-05	-1e-05	-1e-05	-3e-05	-3e-05	-3e-05	-1e-05	0
1599	-1e-05	-1e-05	-1e-05	-1e-05	-3e-05	-3e-05	-3e-05	-1e-05	0
1600	1e-05	0	-2e-05	1e-05	-1e-05	-1e-05	-1e-05	-2e-05	0
1601	1e-05	0	-2e-05	1e-05	-1e-05	-1e-05	-1e-05	-2e-05	0
1602	1e-05	0	-2e-05	1e-05	-1e-05	-1e-05	-1e-05	-2e-05	0
1603	1e-05	0	-2e-05	1e-05	-1e-05	-1e-05	-1e-05	-2e-05	0
1604	1e-05	0	-2e-05	1e-05	-1e-05	-1e-05	-1e-05	-2e-05	0
1605	1e-05	0	-2e-05	1e-05	-1e-05	-1e-05	-1e-05	-2e-05	0
1606	1e-05	0	-2e-05	1e-05	-1e-05	-1e-05	-1e-05	-2e-05	0
1607	1e-05	0	-2e-05	1e-05	-1e-05	-1e-05	-1e-05	-2e-05	0
1608	1e-05	0	-2e-05	1e-05	-1e-05	-1e-05	-1e-05	-2e-05	0
1609	1e-05	0	-2e-05	1e-05	-1e-05	-1e-05	-1e-05	-2e-05	0
1610	1e-05	0	-2e-05	1e-05	-1e-05	-1e-05	-1e-05	-2e-05	0
1611	1e-05	0	-2e-05	1e-05	-1e-05	-1e-05	-1e-05	-2e-05	0
1612	1e-05	0	-2e-05	1e-05	-1e-05	-1e-05	-1e-05	-2e-05	0
1613	1e-05	0	-2e-05	1e-05	-1e-05	-1e-05	-1e-05	-2e-05	0
1614	1e-05	0	-2e-05	1e-05	-1e-05	-1e-05	-1e-05	-2e-05	0
1615	1e-05	0	-2e-05	1e-05	-1e-05	-1e-05	-1e-05	-2e-05	0
1616	1e-05	0	-2e-05	1e-05	-1e-05	-1e-05	-1e-05	-2e-05	0
1617	1e-05	0	-2e-05	1e-05	-1e-05	-1e-05	-1e-05	-2e-05	0
1618	1e-05	0	-2e-05	1e-05	-1e-05	-1e-05	-1e-05	-2e-05	0
1619	1e-05	0	-2e-05	1e-05	-1e-05	-1e-05	-1e-05	-2e-05	0
1620	1e-05	0	-2e-05	1e-05	-1e-05	-1e-05	-1e-05	-2e-05	0
1621	1e-05	0	-2e-05	1e-05	-1e-05	-1e-05	-1e-05	-2e-05	0
1622	-1e-05	-1e-05	-1e-05	-2e-05	-1e-05	1e-05	-1e-05	0	0
1623	-1e-05	0	-1e-05	1e-05	-2e-05	0	2e-05	0	0
1624	-1e-05	0	-1e-05	1e-05	-2e-05	0	2e-05	0	0
1625	-1e-05	0	-1e-05	1e-05	-2e-05	0	2e-05	0	0
1626	-1e-05	0	-1e-05	1e-05	-2e-05	0	2e-05	0	0
1627	-1e-05	0	-1e-05	1e-05	-2e-05	0	2e-05	0	0
1628	-1e-05	0	-1e-05	1e-05	-2e-05	0	2e-05	0	0
1629	-1e-05	0	-1e-05	1e-05	-2e-05	0	2e-05	0	0
1630	-1e-05	0	-1e-05	1e-05	-2e-05	0	2e-05	0	0
1631	-1e-05	0	-1e-05	1e-05	-2e-05	0	2e-05	0	0
1632	-1e-05	0	-1e-05	1e-05	-2e-05	0	2e-05	0	0
1633	-1e-05	0	-1e-05	1e-05	-2e-05	0	2e-05	0	0
1634	-1e-05	0	-1e-05	1e-05	-2e-05	0	2e-05	0	0
1635	-1e-05	0	-1e-05	1e-05	-2e-05	0	2e-05	0	0
1636	-1e-05	0	-1e-05	1e-05	-2e-05	0	2e-05	0	0
1638	-1e-05	0	-1e-05	1e-05	-2e-05	0	2e-05	0	0
1639	-1e-05	0	-1e-05	1e-05	-2e-05	0	2e-05	0	0
1640	-1e-05	0	-1e-05	1e-05	-2e-05	0	2e-05	0	0
1641	-1e-05	0	-1e-05	1e-05	-2e-05	0	2e-05	0	0
1642	-1e-05	0	-1e-05	1e-05	-2e-05	0	2e-05	0	0
1643	-1e-05	0	-1e-05	1e-05	-2e-05	0	2e-05	0	0
1644	-1e-05	0	-1e-05	1e-05	-2e-05	0	2e-05	0	0
1645	-2e-05	-2e-05	0	-1e-05	1e-05	2e-05	-2e-05	1e-05	0
1646	-2e-05	-1e-05	0	-4e-05	-3e-05	-4e-05	-1e-05	-1e-05	0
1647	-2e-05	-1e-05	0	-4e-05	-3e-05	-4e-05	-1e-05	-1e-05	0
1648	-2e-05	-1e-05	0	-4e-05	-3e-05	-4e-05	-1e-05	-1e-05	0
1649	-2e-05	-1e-05	0	-4e-05	-3e-05	-4e-05	-1e-05	-1e-05	0
1650	-2e-05	-1e-05	0	-4e-05	-3e-05	-4e-05	-1e-05	-1e-05	0
1651	-2e-05	-1e-05	0	-4e-05	-3e-05	-4e-05	-1e-05	-1e-05	0
1652	-2e-05	-1e-05	0	-4e-05	-3e-05	-4e-05	-1e-05	-1e-05	0
1653	-2e-05	-1e-05	0	-4e-05	-3e-05	-4e-05	-1e-05	-1e-05	0
1654	-2e-05	-1e-05	0	-4e-05	-3e-05	-4e-05	-1e-05	-1e-05	0
1655	-2e-05	-1e-05	0	-4e-05	-3e-05	-4e-05	-1e-05	-1e-05	0
1656	-2e-05	-1e-05	0	-4e-05	-3e-05	-4e-05	-1e-05	-1e-05	0
1657	-2e-05	-1e-05	0	-4e-05	-3e-05	-4e-05	-1e-05	-1e-05	0
1658	-2e-05	-1e-05	0	-4e-05	-3e-05	-4e-05	-1e-05	-1e-05	0
1659	-2e-05	-1e-05	0	-4e-05	-3e-05	-4e-05	-1e-05	-1e-05	0
1660	-1e-05	-2e-05	-2e-05	-3e-05	-1e-05	-2e-05	0	-1e-05	0
1661	-1e-05	-2e-05	-2e-05	-3e-05	-1e-05	-2e-05	0	-1e-05	0
1662	-1e-05	-2e-05	-2e-05	-3e-05	-1e-05	-2e-05	0	-1e-05	0
1663	-1e-05	-2e-05	-2e-05	-3e-05	-1e-05	-2e-05	0	-1e-05	0
1664	-1e-05	-2e-05	-2e-05	-3e-05	-1e-05	-2e-05	0	-1e-05	0
1665	-1e-05	-2e-05	-2e-05	-3e-05	-1e-05	-2e-05	0	-1e-05	0
1666	-1e-05	-2e-05	-2e-05	-3e-05	-1e-05	-2e-05	0	-1e-05	0
1667	-1e-05	-2e-05	-2e-05	-3e-05	-1e-05	-2e-05	0	-1e-05	0
1668	-1e-05	-2e-05	-2e-05	-3e-05	-1e-05	-2e-05	0	-1e-05	0
1669	-1e-05	-2e-05	-2e-05	-3e-05	-1e-05	-2e-05	0	-1e-05	0
1670	-1e-05	-2e-05	-2e-05	-3e-05	-1e-05	-2e-05	0	-1e-05	0
1671	-1e-05	-2e-05	-2e-05	-3e-05	-1e-05	-2e-05	0	-1e-05	0
1672	-1e-05	-2e-05	-2e-05	-3e-05	-1e-05	-2e-05	0	-1e-05	0
1673	-1e-05	-2e-05	-2e-05	-3e-05	-1e-05	-2e-05	0	-1e-05	0
1674	-1e-05	-2e-05	-2e-05	-3e-05	-1e-05	-2e-05	0	-1e-05	0
1675	-1e-05	-2e-05	-2e-05	-3e-05	-1e-05	-2e-05	0	-1e-05	0
1676	-1e-05	-2e-05	-2e-05	-3e-05	-1e-05	-2e-05	0	-1e-05	0
1677	-1e-05	-2e-05	-2e-05	-3e-05	-1e-05	-2e-05	0	-1e-05	0
1678	-1e-05	-2e-05	-2e-05	-3e-05	-1e-05	-2e-05	0	-1e-05	0
1679	-1e-05	-2e-05	-2e-05	-3e-05	-1e-05	-2e-05	0	-1e-05	0
1680	-1e-05	-2e-05	-2e-05	-3e-05	-1e-05	-2e-05	0	-1e-05	0
1681	-1e-05	-2e-05	-2e-05	-3e-05	-1e-05	-2e-05	0	-1e-05	0
1682	0	-1e-05	-2e-05	-1e-05	0	-3e-05	0	-2e-05	0
1683	-2e-05	0	-2e-05	-1e-05	-2e-05	-1e-05	-1e-05	-2e-05	0
1684	-2e-05	0	-2e-05	-1e-05	-2e-05	-1e-05	-1e-05	-2e-05	0
1685	-2e-05	0	-2e-05	-1e-05	-2e-05	-1e-05	-1e-05	-2e-05	0
1686	-2e-05	0	-2e-05	-1e-05	-2e-05	-1e-05	-1e-05	-2e-05	0
1688	-2e-05	0	-2e-05	-1e-05	-2e-05	-1e-05	-1e-05	-2e-05	0
1689	-2e-05	0	-2e-05	-1e-05	-2e-05	-1e-05	-1e-05	-2e-05	0
1690	-2e-05	0	-2e-05	-1e-05	-2e-05	-1e-05	-1e-05	-2e-05	0
1691	-2e-05	0	-2e-05	-1e-05	-2e-05	-1e-05	-1e-05	-2e-05	0
1692	-2e-05	0	-2e-05	-1e-05	-2e-05	-1e-05	-1e-05	-2e-05	0
1693	-2e-05	0	-2e-05	-1e-05	-2e-05	-1e-05	-1e-05	-2e-05	0
1694	-2e-05	0	-2e-05	-1e-05	-2e-05	-1e-05	-1e-05	-2e-05	0
1695	-2e-05	0	-2e-05	-1e-05	-2e-05	-1e-05	-1e-05	-2e-05	0
1696	-2e-05	0	-2e-05	-1e-05	-2e-05	-1e-05	-1e-05	-2e-05	0
1697	-2e-05	0	-2e-05	-1e-05	-2e-05	-1e-05	-1e-05	-2e-05	0
1698	-2e-05	0	-2e-05	-1e-05	-2e-05	-1e-05	-1e-05	-2e-05	0
1699	-2e-05	0	-2e-05	-1e-05	-2e-05	-1e-05	-1e-05	-2e-05	0
1700	-2e-05	0	-2e-05	-1e-05	-2e-05	-1e-05	-1e-05	-2e-05	0
1701	-2e-05	0	-2e-05	-1e-05	-2e-05	-1e-05	-1e-05	-2e-05	0
1702	-2e-05	0	-2e-05	-1e-05	-2e-05	-1e-05	-1e-05	-2e-05	0
1703	-2e-05	0	-2e-05	-1e-05	-2e-05	-1e-05	-1e-05	-2e-05	0
1704	-2e-05	0	-2e-05	-1e-05	-2e-05	-1e-05	-1e-05	-2e-05	0
1705	-2e-05	0	-2e-05	-1e-05	-2e-05	-1e-05	-1e-05	-2e-05	0
1706	-2e-05	0	0	-1e-05	-1e-05	-1e-05	-2e-05	0	0
1707	-2e-05	0	0	-1e-05	-1e-05	-1e-05	-2e-05	0	0
1708	-2e-05	0	0	-1e-05	-1e-05	-1e-05	-2e-05	0	0
1709	-2e-05	0	0	-1e-05	-1e-05	-1e-05	-2e-05	0	0
1710	-2e-05	0	0	-1e-05	-1e-05	-1e-05	-2e-05	0	0
1711	-2e-05	0	0	-1e-05	-1e-05	-1e-05	-2e-05	0	0
1712	-2e-05	0	0	-1e-05	-1e-05	-1e-05	-2e-05	0	0
1713	-2e-05	0	0	-1e-05	-1e-05	-1e-05	-2e-05	0	0
1714	-2e-05	0	0	-1e-05	-1e-05	-1e-05	-2e-05	0	0
1715	-2e-05	0	0	-1e-05	-1e-05	-1e-05	-2e-05	0	0
1716	-2e-05	0	0	-1e-05	-1e-05	-1e-05	-2e-05	0	0
1717	-2e-05	0	0	-1e-05	-1e-05	-1e-05	-2e-05	0	0
1718	-2e-05	0	0	-1e-05	-1e-05	-1e-05	-2e-05	0	0
1719	-2e-05	0	0	-1e-05	-1e-05	-1e-05	-2e-05	0	0
1720	0	-3e-05	-2e-05	0	0	-1e-05	0	-3e-05	0
1721	0	-3e-05	-2e-05	0	0	-1e-05	0	-3e-05	0
1722	0	-3e-05	-2e-05	0	0	-1e-05	0	-3e-05	0
1723	0	-3e-05	-2e-05	0	0	-1e-05	0	-3e-05	0
1724	0	-3e-05	-2e-05	0	0	-1e-05	0	-3e-05	0
1725	0	-3e-05	-2e-05	0	0	-1e-05	0	-3e-05	0
1726	0	-3e-05	-2e-05	0	0	-1e-05	0	-3e-05	0
1727	0	-3e-05	-2e-05	0	0	-1e-05	0	-3e-05	0
1728	0	-3e-05	-2e-05	0	0	-1e-05	0	-3e-05	0
1729	0	-3e-05	-2e-05	0	0	-1e-05	0	-3e-05	0
1730	0	-3e-05	-2e-05	0	0	-1e-05	0	-3e-05	0
1731	0	-3e-05	-2e-05	0	0	-1e-05	0	-3e-05	0
1732	0	-3e-05	-2e-05	0	0	-1e-05	0	-3e-05	0
1733	0	-3e-05	-2e-05	0	0	-1e-05	0	-3e-05	0
1734	0	-3e-05	-2e-05	0	0	-1e-05	0	-3e-05	0
1735	0	-3e-05	-2e-05	0	0	-1e-05	0	-3e-05	0
1736	0	-3e-05	-2e-05	0	0	-1e-05	0	-3e-05	0
1738	0	-3e-05	-2e-05	0	0	-1e-05	0	-3e-05	0
1739	0	-3e-05	-2e-05	0	0	-1e-05	0	-3e-05	0
1740	0	-3e-05	-2e-05	0	0	-1e-05	0	-3e-05	0
1741	0	-3e-05	-2e-05	0	0	-1e-05	0	-3e-05	0
1742	0	-1e-05	-1e-05	-1e-05	-3e-05	1e-05	0	-2e-05	0
1743	-1e-05	0	-1e-05	0	-1e-05	0	0	-1e-05	0
1744	-1e-05	0	-1e-05	0	-1e-05	0	0	-1e-05	0
1745	-1e-05	0	-1e-05	0	-1e-05	0	0	-1e-05	0
1746	-1e-05	0	-1e-05	0	-1e-05	0	0	-1e-05	0
1747	-1e-05	0	-1e-05	0	-1e-05	0	0	-1e-05	0
1748	-1e-05	0	-1e-05	0	-1e-05	0	0	-1e-05	0
1749	-1e-05	0	-1e-05	0	-1e-05	0	0	-1e-05	0
1750	-1e-05	0	-1e-05	0	-1e-05	0	0	-1e-05	0
1751	-1e-05	0	-1e-05	0	-1e-05	0	0	-1e-05	0
1752	-1e-05	0	-1e-05	0	-1e-05	0	0	-1e-05	0
1753	-1e-05	0	-1e-05	0	-1e-05	0	0	-1e-05	0
1754	-1e-05	0	-1e-05	0	-1e-05	0	0	-1e-05	0
1755	-1e-05	0	-1e-05	0	-1e-05	0	0	-1e-05	0
1756	-1e-05	0	-1e-05	0	-1e-05	0	0	-1e-05	0
1757	-1e-05	0	-1e-05	0	-1e-05	0	0	-1e-05	0
1758	-1e-05	0	-1e-05	0	-1e-05	0	0	-1e-05	0
1759	-1e-05	0	-1e-05	0	-1e-05	0	0	-1e-05	0
1760	-1e-05	0	-1e-05	0	-1e-05	0	0	-1e-05	0
1761	-1e-05	0	-1e-05	0	-1e-05	0	0	-1e-05	0
1762	-1e-05	0	-1e-05	0	-1e-05	0	0	-1e-05	0
1763	-1e-05	0	-1e-05	0	-1e-05	0	0	-1e-05	0
1764	-1e-05	0	-1e-05	0	-1e-05	0	0	-1e-05	0
1765	0	-2e-05	0	-2e-05	-2e-05	-4e-05	-2e-05	-3e-05	0
1766	-1e-05	-1e-05	1e-05	0	2e-05	3e-05	2e-05	0	0
1767	-1e-05	-1e-05	1e-05	0	2e-05	3e-05	2e-05	0	0
1768	-1e-05	-1e-05	1e-05	0	2e-05	3e-05	2e-05	0	0
1769	-1e-05	-1e-05	1e-05	0	2e-05	3e-05	2e-05	0	0
1770	-1e-05	-1e-05	1e-05	0	2e-05	3e-05	2e-05	0	0
1771	-1e-05	-1e-05	1e-05	0	2e-05	3e-05	2e-05	0	0
1772	-1e-05	-1e-05	1e-05	0	2e-05	3e-05	2e-05	0	0
1773	-1e-05	-1e-05	1e-05	0	2e-05	3e-05	2e-05	0	0
1774	-1e-05	-1e-05	1e-05	0	2e-05	3e-05	2e-05	0	0
1775	-1e-05	-1e-05	1e-05	0	2e-05	3e-05	2e-05	0	0
1776	-1e-05	-1e-05	1e-05	0	2e-05	3e-05	2e-05	0	0
1777	-1e-05	-1e-05	1e-05	0	2e-05	3e-05	2e-05	0	0
1778	-1e-05	-1e-05	1e-05	0	2e-05	3e-05	2e-05	0	0
1779	-3e-05	0	0	0	1e-05	3e-05	-1e-05	0	0
1780	1e-05	-1e-05	-2e-05	-1e-05	-1e-05	0	-1e-05	-2e-05	0
1781	1e-05	-1e-05	-2e-05	-1e-05	-1e-05	0	-1e-05	-2e-05	0
1782	1e-05	-1e-05	-2e-05	-1e-05	-1e-05	0	-1e-05	-2e-05	0
1783	1e-05	-1e-05	-2e-05	-1e-05	-1e-05	0	-1e-05	-2e-05	0
1784	1e-05	-1e-05	-2e-05	-1e-05	-1e-05	0	-1e-05	-2e-05	0
1785	1e-05	-1e-05	-2e-05	-1e-05	-1e-05	0	-1e-05	-2e-05	0
1786	1e-05	-1e-05	-2e-05	-1e-05	-1e-05	0	-1e-05	-2e-05	0
1788	1e-05	-1e-05	-2e-05	-1e-05	-1e-05	0	-1e-05	-2e-05	0
1789	1e-05	-1e-05	-2e-05	-1e-05	-1e-05	0	-1e-05	-2e-05	0
1790	1e-05	-1e-05	-2e-05	-1e-05	-1e-05	0	-1e-05	-2e-05	0
1791	1e-05	-1e-05	-2e-05	-1e-05	-1e-05	0	-1e-05	-2e-05	0
1792	1e-05	-1e-05	-2e-05	-1e-05	-1e-05	0	-1e-05	-2e-05	0
1793	1e-05	-1e-05	-2e-05	-1e-05	-1e-05	0	-1e-05	-2e-05	0
1794	1e-05	-1e-05	-2e-05	-1e-05	-1e-05	0	-1e-05	-2e-05	0
1795	1e-05	-1e-05	-2e-05	-1e-05	-1e-05	0	-1e-05	-2e-05	0
1796	1e-05	-1e-05	-2e-05	-1e-05	-1e-05	0	-1e-05	-2e-05	0
1797	1e-05	-1e-05	-2e-05	-1e-05	-1e-05	0	-1e-05	-2e-05	0
1798	1e-05	-1e-05	-2e-05	-1e-05	-1e-05	0	-1e-05	-2e-05	0
1799	1e-05	-1e-05	-2e-05	-1e-05	-1e-05	0	-1e-05	-2e-05	0
1800	1e-05	-1e-05	-2e-05	-1e-05	-1e-05	0	-1e-05	-2e-05	0
1801	1e-05	-1e-05	-2e-05	-1e-05	-1e-05	0	-1e-05	-2e-05	0
1802	0	0	-1e-05	-2e-05	-1e-05	-3e-05	0	-1e-05	0
1803	-1e-05	-1e-05	1e-05	1e-05	1e-05	1e-05	1e-05	-1e-05	0
1804	-1e-05	-1e-05	1e-05	1e-05	1e-05	1e-05	1e-05	-1e-05	0
1805	-1e-05	-1e-05	1e-05	1e-05	1e-05	1e-05	1e-05	-1e-05	0
1806	-1e-05	-1e-05	1e-05	1e-05	1e-05	1e-05	1e-05	-1e-05	0
1807	-1e-05	-1e-05	1e-05	1e-05	1e-05	1e-05	1e-05	-1e-05	0
1808	-1e-05	-1e-05	1e-05	1e-05	1e-05	1e-05	1e-05	-1e-05	0
1809	-1e-05	-1e-05	1e-05	1e-05	1e-05	1e-05	1e-05	-1e-05	0
1810	-1e-05	-1e-05	1e-05	1e-05	1e-05	1e-05	1e-05	-1e-05	0
1811	-1e-05	-1e-05	1e-05	1e-05	1e-05	1e-05	1e-05	-1e-05	0
1812	-1e-05	-1e-05	1e-05	1e-05	1e-05	1e-05	1e-05	-1e-05	0
1813	-1e-05	-1e-05	1e-05	1e-05	1e-05	1e-05	1e-05	-1e-05	0
1814	-1e-05	-1e-05	1e-05	1e-05	1e-05	1e-05	1e-05	-1e-05	0
1815	-1e-05	-1e-05	1e-05	1e-05	1e-05	1e-05	1e-05	-1e-05	0
1816	-1e-05	-1e-05	1e-05	1e-05	1e-05	1e-05	1e-05	-1e-05	0
1817	-1e-05	-1e-05	1e-05	1e-05	1e-05	1e-05	1e-05	-1e-05	0
1818	-1e-05	-1e-05	1e-05	1e-05	1e-05	1e-05	1e-05	-1e-05	0
1819	-1e-05	-1e-05	1e-05	1e-05	1e-05	1e-05	1e-05	-1e-05	0
1820	-1e-05	-1e-05	1e-05	1e-05	1e-05	1e-05	1e-05	-1e-05	0
1821	-1e-05	-1e-05	1e-05	1e-05	1e-05	1e-05	1e-05	-1e-05	0
1822	-1e-05	-1e-05	1e-05	1e-05	1e-05	1e-05	1e-05	-1e-05	0
1823	-1e-05	-1e-05	1e-05	1e-05	1e-05	1e-05	1e-05	-1e-05	0
1824	-1e-05	-1e-05	1e-05	1e-05	1e-05	1e-05	1e-05	-1e-05	0
1825	-1e-05	-2e-05	-1e-05	-3e-05	-2e-05	-3e-05	-2e-05	0	0
1826	1e-05	1e-05	-1e-05	1e-05	0	1e-05	-1e-05	0	0
1827	1e-05	1e-05	-1e-05	1e-05	0	1e-05	-1e-05	0	0
1828	1e-05	1e-05	-1e-05	1e-05	0	1e-05	-1e-05	0	0
1829	1e-05	1e-05	-1e-05	1e-05	0	1e-05	-1e-05	0	0
1830	1e-05	1e-05	-1e-05	1e-05	0	1e-05	-1e-05	0	0
1831	1e-05	1e-05	-1e-05	1e-05	0	1e-05	-1e-05	0	0
1832	1e-05	1e-05	-1e-05	1e-05	0	1e-05	-1e-05	0	0
1833	1e-05	1e-05	-1e-05	1e-05	0	1e-05	-1e-05	0	0
1834	1e-05	1e-05	-1e-05	1e-05	0	1e-05	-1e-05	0	0
1835	1e-05	1e-05	-1e-05	1e-05	0	1e-05	-1e-05	0	0
1836	1e-05	1e-05	-1e-05	1e-05	0	1e-05	-1e-05	0	0
1838	1e-05	1e-05	-1e-05	1e-05	0	1e-05	-1e-05	0	0
1839	1e-05	1e-05	-1e-05	1e-05	0	1e-05	-1e-05	0	0
1840	-1e-05	-1e-05	-1e-05	-1e-05	-1e-05	-1e-05	-2e-05	-2e-05	0
1841	-1e-05	-1e-05	-1e-05	-1e-05	-1e-05	-1e-05	-2e-05	-2e-05	0
1842	-1e-05	-1e-05	-1e-05	-1e-05	-1e-05	-1e-05	-2e-05	-2e-05	0
1843	-1e-05	-1e-05	-1e-05	-1e-05	-1e-05	-1e-05	-2e-05	-2e-05	0
1844	-1e-05	-1e-05	-1e-05	-1e-05	-1e-05	-1e-05	-2e-05	-2e-05	0
1845	-1e-05	-1e-05	-1e-05	-1e-05	-1e-05	-1e-05	-2e-05	-2e-05	0
1846	-1e-05	-1e-05	-1e-05	-1e-05	-1e-05	-1e-05	-2e-05	-2e-05	0
1847	-1e-05	-1e-05	-1e-05	-1e-05	-1e-05	-1e-05	-2e-05	-2e-05	0
1848	-1e-05	-1e-05	-1e-05	-1e-05	-1e-05	-1e-05	-2e-05	-2e-05	0
1849	-1e-05	-1e-05	-1e-05	-1e-05	-1e-05	-1e-05	-2e-05	-2e-05	0
1850	-1e-05	-1e-05	-1e-05	-1e-05	-1e-05	-1e-05	-2e-05	-2e-05	0
1851	-1e-05	-1e-05	-1e-05	-1e-05	-1e-05	-1e-05	-2e-05	-2e-05	0
1852	-1e-05	-1e-05	-1e-05	-1e-05	-1e-05	-1e-05	-2e-05	-2e-05	0
1853	-1e-05	-1e-05	-1e-05	-1e-05	-1e-05	-1e-05	-2e-05	-2e-05	0
1854	-1e-05	-1e-05	-1e-05	-1e-05	-1e-05	-1e-05	-2e-05	-2e-05	0
1855	-1e-05	-1e-05	-1e-05	-1e-05	-1e-05	-1e-05	-2e-05	-2e-05	0
1856	-1e-05	-1e-05	-1e-05	-1e-05	-1e-05	-1e-05	-2e-05	-2e-05	0
1857	-1e-05	-1e-05	-1e-05	-1e-05	-1e-05	-1e-05	-2e-05	-2e-05	0
1858	-1e-05	-1e-05	-1e-05	-1e-05	-1e-05	-1e-05	-2e-05	-2e-05	0
1859	-1e-05	-1e-05	-1e-05	-1e-05	-1e-05	-1e-05	-2e-05	-2e-05	0
1860	-1e-05	-1e-05	-1e-05	-1e-05	-1e-05	-1e-05	-2e-05	-2e-05	0
1861	-1e-05	-1e-05	-1e-05	-1e-05	-1e-05	-1e-05	-2e-05	-2e-05	0
1862	-2e-05	0	-1e-05	-1e-05	-1e-05	-1e-05	-2e-05	-2e-05	0
1863	-1e-05	-4e-05	-2e-05	-1e-05	1e-05	-2e-05	-2e-05	-2e-05	0
1864	-1e-05	-4e-05	-2e-05	-1e-05	1e-05	-2e-05	-2e-05	-2e-05	0
1865	-1e-05	-4e-05	-2e-05	-1e-05	1e-05	-2e-05	-2e-05	-2e-05	0
1866	-1e-05	-4e-05	-2e-05	-1e-05	1e-05	-2e-05	-2e-05	-2e-05	0
1867	-1e-05	-4e-05	-2e-05	-1e-05	1e-05	-2e-05	-2e-05	-2e-05	0
1868	-1e-05	-4e-05	-2e-05	-1e-05	1e-05	-2e-05	-2e-05	-2e-05	0
1869	-1e-05	-4e-05	-2e-05	-1e-05	1e-05	-2e-05	-2e-05	-2e-05	0
1870	-1e-05	-4e-05	-2e-05	-1e-05	1e-05	-2e-05	-2e-05	-2e-05	0
1871	-1e-05	-4e-05	-2e-05	-1e-05	1e-05	-2e-05	-2e-05	-2e-05	0
1872	-1e-05	-4e-05	-2e-05	-1e-05	1e-05	-2e-05	-2e-05	-2e-05	0
1873	-1e-05	-4e-05	-2e-05	-1e-05	1e-05	-2e-05	-2e-05	-2e-05	0
1874	-1e-05	-4e-05	-2e-05	-1e-05	1e-05	-2e-05	-2e-05	-2e-05	0
1875	-1e-05	-4e-05	-2e-05	-1e-05	1e-05	-2e-05	-2e-05	-2e-05	0
1876	-1e-05	-4e-05	-2e-05	-1e-05	1e-05	-2e-05	-2e-05	-2e-05	0
1877	-1e-05	-4e-05	-2e-05	-1e-05	1e-05	-2e-05	-2e-05	-2e-05	0
1878	-1e-05	-4e-05	-2e-05	-1e-05	1e-05	-2e-05	-2e-05	-2e-05	0
1879	-1e-05	-4e-05	-2e-05	-1e-05	1e-05	-2e-05	-2e-05	-2e-05	0
1880	-1e-05	-4e-05	-2e-05	-1e-05	1e-05	-2e-05	-2e-05	-2e-05	0
1881	-1e-05	-4e-05	-2e-05	-1e-05	1e-05	-2e-05	-2e-05	-2e-05	0
1882	-1e-05	-4e-05	-2e-05	-1e-05	1e-05	-2e-05	-2e-05	-2e-05	0
1883	-1e-05	-4e-05	-2e-05	-1e-05	1e-05	-2e-05	-2e-05	-2e-05	0
1884	-1e-05	-4e-05	-2e-05	-1e-05	1e-05	-2e-05	-2e-05	-2e-05	0
1885	-1e-05	-1e-05	-1e-05	-1e-05	-1e-05	-2e-05	0	0	0
1886	-2e-05	0	-1e-05	-1e-05	-2e-05	-2e-05	1e-05	1e-05	0
1888	-2e-05	0	-1e-05	-1e-05	-2e-05	-2e-05	1e-05	1e-05	0
1889	-2e-05	0	-1e-05	-1e-05	-2e-05	-2e-05	1e-05	1e-05	0
1890	-2e-05	0	-1e-05	-1e-05	-2e-05	-2e-05	1e-05	1e-05	0
1891	-2e-05	0	-1e-05	-1e-05	-2e-05	-2e-05	1e-05	1e-05	0
1892	-2e-05	0	-1e-05	-1e-05	-2e-05	-2e-05	1e-05	1e-05	0
1893	-2e-05	0	-1e-05	-1e-05	-2e-05	-2e-05	1e-05	1e-05	0
1894	-2e-05	0	-1e-05	-1e-05	-2e-05	-2e-05	1e-05	1e-05	0
1895	-2e-05	0	-1e-05	-1e-05	-2e-05	-2e-05	1e-05	1e-05	0
1896	-2e-05	0	-1e-05	-1e-05	-2e-05	-2e-05	1e-05	1e-05	0
1897	-2e-05	0	-1e-05	-1e-05	-2e-05	-2e-05	1e-05	1e-05	0
1898	-2e-05	0	-1e-05	-1e-05	-2e-05	-2e-05	1e-05	1e-05	0
1899	-2e-05	0	-1e-05	-1e-05	-2e-05	-2e-05	1e-05	1e-05	0
1900	0	-2e-05	1e-05	-2e-05	-3e-05	-2e-05	-1e-05	-1e-05	0
1901	0	-2e-05	1e-05	-2e-05	-3e-05	-2e-05	-1e-05	-1e-05	0
1902	0	-2e-05	1e-05	-2e-05	-3e-05	-2e-05	-1e-05	-1e-05	0
1903	0	-2e-05	1e-05	-2e-05	-3e-05	-2e-05	-1e-05	-1e-05	0
1904	0	-2e-05	1e-05	-2e-05	-3e-05	-2e-05	-1e-05	-1e-05	0
1905	0	-2e-05	1e-05	-2e-05	-3e-05	-2e-05	-1e-05	-1e-05	0
1906	0	-2e-05	1e-05	-2e-05	-3e-05	-2e-05	-1e-05	-1e-05	0
1907	0	-2e-05	1e-05	-2e-05	-3e-05	-2e-05	-1e-05	-1e-05	0
1908	0	-2e-05	1e-05	-2e-05	-3e-05	-2e-05	-1e-05	-1e-05	0
1909	0	-2e-05	1e-05	-2e-05	-3e-05	-2e-05	-1e-05	-1e-05	0
1910	0	-2e-05	1e-05	-2e-05	-3e-05	-2e-05	-1e-05	-1e-05	0
1911	0	-2e-05	1e-05	-2e-05	-3e-05	-2e-05	-1e-05	-1e-05	0
1912	0	-2e-05	1e-05	-2e-05	-3e-05	-2e-05	-1e-05	-1e-05	0
1913	0	-2e-05	1e-05	-2e-05	-3e-05	-2e-05	-1e-05	-1e-05	0
1914	0	-2e-05	1e-05	-2e-05	-3e-05	-2e-05	-1e-05	-1e-05	0
1915	0	-2e-05	1e-05	-2e-05	-3e-05	-2e-05	-1e-05	-1e-05	0
1916	0	-2e-05	1e-05	-2e-05	-3e-05	-2e-05	-1e-05	-1e-05	0
1917	0	-2e-05	1e-05	-2e-05	-3e-05	-2e-05	-1e-05	-1e-05	0
1918	0	-2e-05	1e-05	-2e-05	-3e-05	-2e-05	-1e-05	-1e-05	0
1919	0	-2e-05	1e-05	-2e-05	-3e-05	-2e-05	-1e-05	-1e-05	0
1920	0	-2e-05	1e-05	-2e-05	-3e-05	-2e-05	-1e-05	-1e-05	0
1921	0	-2e-05	1e-05	-2e-05	-3e-05	-2e-05	-1e-05	-1e-05	0
1922	0	0	-2e-05	0	-1e-05	1e-05	-1e-05	1e-05	0
1923	-2e-05	-1e-05	-2e-05	0	0	-1e-05	-2e-05	-1e-05	0
1924	-2e-05	-1e-05	-2e-05	0	0	-1e-05	-2e-05	-1e-05	0
1925	-2e-05	-1e-05	-2e-05	0	0	-1e-05	-2e-05	-1e-05	0
1926	-2e-05	-1e-05	-2e-05	0	0	-1e-05	-2e-05	-1e-05	0
1927	-2e-05	-1e-05	-2e-05	0	0	-1e-05	-2e-05	-1e-05	0
1928	-2e-05	-1e-05	-2e-05	0	0	-1e-05	-2e-05	-1e-05	0
1929	-2e-05	-1e-05	-2e-05	0	0	-1e-05	-2e-05	-1e-05	0
1930	-2e-05	-1e-05	-2e-05	0	0	-1e-05	-2e-05	-1e-05	0
1931	-2e-05	-1e-05	-2e-05	0	0	-1e-05	-2e-05	-1e-05	0
1932	-2e-05	-1e-05	-2e-05	0	0	-1e-05	-2e-05	-1e-05	0
1933	-2e-05	-1e-05	-2e-05	0	0	-1e-05	-2e-05	-1e-05	0
1934	-2e-05	-1e-05	-2e-05	0	0	-1e-05	-2e-05	-1e-05	0
1935	-2e-05	-1e-05	-2e-05	0	0	-1e-05	-2e-05	-1e-05	0
1936	-2e-05	-1e-05	-2e-05	0	0	-1e-05	-2e-05	-1e-05	0
1938	-2e-05	-1e-05	-2e-05	0	0	-1e-05	-2e-05	-1e-05	0
1939	-2e-05	-1e-05	-2e-05	0	0	-1e-05	-2e-05	-1e-05	0
1940	-2e-05	-1e-05	-2e-05	0	0	-1e-05	-2e-05	-1e-05	0
1941	-2e-05	-1e-05	-2e-05	0	0	-1e-05	-2e-05	-1e-05	0
1942	-2e-05	-1e-05	-2e-05	0	0	-1e-05	-2e-05	-1e-05	0
1943	-2e-05	-1e-05	-2e-05	0	0	-1e-05	-2e-05	-1e-05	0
1944	-2e-05	-1e-05	-2e-05	0	0	-1e-05	-2e-05	-1e-05	0
1945	-2e-05	-1e-05	-1e-05	-2e-05	-4e-05	-2e-05	1e-05	-2e-05	0
1946	-2e-05	2e-05	-1e-05	-4e-05	-3e-05	-2e-05	-2e-05	-1e-05	0
1947	-2e-05	2e-05	-1e-05	-4e-05	-3e-05	-2e-05	-2e-05	-1e-05	0
1948	-2e-05	2e-05	-1e-05	-4e-05	-3e-05	-2e-05	-2e-05	-1e-05	0
1949	-2e-05	2e-05	-1e-05	-4e-05	-3e-05	-2e-05	-2e-05	-1e-05	0
1950	-2e-05	2e-05	-1e-05	-4e-05	-3e-05	-2e-05	-2e-05	-1e-05	0
1951	-2e-05	2e-05	-1e-05	-4e-05	-3e-05	-2e-05	-2e-05	-1e-05	0
1952	-2e-05	2e-05	-1e-05	-4e-05	-3e-05	-2e-05	-2e-05	-1e-05	0
1953	-2e-05	2e-05	-1e-05	-4e-05	-3e-05	-2e-05	-2e-05	-1e-05	0
1954	-2e-05	2e-05	-1e-05	-4e-05	-3e-05	-2e-05	-2e-05	-1e-05	0
1955	-2e-05	2e-05	-1e-05	-4e-05	-3e-05	-2e-05	-2e-05	-1e-05	0
1956	-2e-05	2e-05	-1e-05	-4e-05	-3e-05	-2e-05	-2e-05	-1e-05	0
1957	-2e-05	2e-05	-1e-05	-4e-05	-3e-05	-2e-05	-2e-05	-1e-05	0
1958	-2e-05	2e-05	-1e-05	-4e-05	-3e-05	-2e-05	-2e-05	-1e-05	0
1959	-1e-05	-1e-05	1e-05	4e-05	4e-05	2e-05	1e-05	0	0
1960	1e-05	-2e-05	-1e-05	-2e-05	-3e-05	-5e-05	-2e-05	0	0
1961	1e-05	-2e-05	-1e-05	-2e-05	-3e-05	-5e-05	-2e-05	0	0
1962	1e-05	-2e-05	-1e-05	-2e-05	-3e-05	-5e-05	-2e-05	0	0
1963	1e-05	-2e-05	-1e-05	-2e-05	-3e-05	-5e-05	-2e-05	0	0
1964	1e-05	-2e-05	-1e-05	-2e-05	-3e-05	-5e-05	-2e-05	0	0
1965	1e-05	-2e-05	-1e-05	-2e-05	-3e-05	-5e-05	-2e-05	0	0
1966	1e-05	-2e-05	-1e-05	-2e-05	-3e-05	-5e-05	-2e-05	0	0
1967	1e-05	-2e-05	-1e-05	-2e-05	-3e-05	-5e-05	-2e-05	0	0
1968	1e-05	-2e-05	-1e-05	-2e-05	-3e-05	-5e-05	-2e-05	0	0
1969	1e-05	-2e-05	-1e-05	-2e-05	-3e-05	-5e-05	-2e-05	0	0
1970	1e-05	-2e-05	-1e-05	-2e-05	-3e-05	-5e-05	-2e-05	0	0
1971	1e-05	-2e-05	-1e-05	-2e-05	-3e-05	-5e-05	-2e-05	0	0
1972	1e-05	-2e-05	-1e-05	-2e-05	-3e-05	-5e-05	-2e-05	0	0
1973	1e-05	-2e-05	-1e-05	-2e-05	-3e-05	-5e-05	-2e-05	0	0
1974	1e-05	-2e-05	-1e-05	-2e-05	-3e-05	-5e-05	-2e-05	0	0
1975	1e-05	-2e-05	-1e-05	-2e-05	-3e-05	-5e-05	-2e-05	0	0
1976	1e-05	-2e-05	-1e-05	-2e-05	-3e-05	-5e-05	-2e-05	0	0
1977	1e-05	-2e-05	-1e-05	-2e-05	-3e-05	-5e-05	-2e-05	0	0
1978	1e-05	-2e-05	-1e-05	-2e-05	-3e-05	-5e-05	-2e-05	0	0
1979	1e-05	-2e-05	-1e-05	-2e-05	-3e-05	-5e-05	-2e-05	0	0
1980	1e-05	-2e-05	-1e-05	-2e-05	-3e-05	-5e-05	-2e-05	0	0
1981	1e-05	-2e-05	-1e-05	-2e-05	-3e-05	-5e-05	-2e-05	0	0
1982	-2e-05	0	-1e-05	-3e-05	-2e-05	0	-1e-05	1e-05	0
1983	0	-1e-05	-3e-05	-1e-05	-2e-05	1e-05	1e-05	-1e-05	0
1984	0	-1e-05	-3e-05	-1e-05	-2e-05	1e-05	1e-05	-1e-05	0
1985	0	-1e-05	-3e-05	-1e-05	-2e-05	1e-05	1e-05	-1e-05	0
1986	0	-1e-05	-3e-05	-1e-05	-2e-05	1e-05	1e-05	-1e-05	0
1988	0	-1e-05	-3e-05	-1e-05	-2e-05	1e-05	1e-05	-1e-05	0
1989	0	-1e-05	-3e-05	-1e-05	-2e-05	1e-05	1e-05	-1e-05	0
1990	0	-1e-05	-3e-05	-1e-05	-2e-05	1e-05	1e-05	-1e-05	0
1991	0	-1e-05	-3e-05	-1e-05	-2e-05	1e-05	1e-05	-1e-05	0
1992	0	-1e-05	-3e-05	-1e-05	-2e-05	1e-05	1e-05	-1e-05	0
1993	0	-1e-05	-3e-05	-1e-05	-2e-05	1e-05	1e-05	-1e-05	0
1994	0	-1e-05	-3e-05	-1e-05	-2e-05	1e-05	1e-05	-1e-05	0
1995	0	-1e-05	-3e-05	-1e-05	-2e-05	1e-05	1e-05	-1e-05	0
1996	0	-1e-05	-3e-05	-1e-05	-2e-05	1e-05	1e-05	-1e-05	0
1997	0	-1e-05	-3e-05	-1e-05	-2e-05	1e-05	1e-05	-1e-05	0
1998	0	-1e-05	-3e-05	-1e-05	-2e-05	1e-05	1e-05	-1e-05	0
1999	0	-1e-05	-3e-05	-1e-05	-2e-05	1e-05	1e-05	-1e-05	0
2000	0	-1e-05	-3e-05	-1e-05	-2e-05	1e-05	1e-05	-1e-05	0
2001	0	-1e-05	-3e-05	-1e-05	-2e-05	1e-05	1e-05	-1e-05	0
2002	0	-1e-05	-3e-05	-1e-05	-2e-05	1e-05	1e-05	-1e-05	0
2003	0	-1e-05	-3e-05	-1e-05	-2e-05	1e-05	1e-05	-1e-05	0
2004	0	-1e-05	-3e-05	-1e-05	-2e-05	1e-05	1e-05	-1e-05	0
2005	1e-05	-2e-05	-2e-05	0	3e-05	-1e-05	1e-05	-2e-05	0
2006	-1e-05	-1e-05	0	1e-05	1e-05	0	-1e-05	-2e-05	0
2007	-1e-05	-1e-05	0	1e-05	1e-05	0	-1e-05	-2e-05	0
2008	-1e-05	-1e-05	0	1e-05	1e-05	0	-1e-05	-2e-05	0
2009	-1e-05	-1e-05	0	1e-05	1e-05	0	-1e-05	-2e-05	0
2010	-1e-05	-1e-05	0	1e-05	1e-05	0	-1e-05	-2e-05	0
2011	-1e-05	-1e-05	0	1e-05	1e-05	0	-1e-05	-2e-05	0
2012	-1e-05	-1e-05	0	1e-05	1e-05	0	-1e-05	-2e-05	0
2013	-1e-05	-1e-05	0	1e-05	1e-05	0	-1e-05	-2e-05	0
2014	-1e-05	-1e-05	0	1e-05	1e-05	0	-1e-05	-2e-05	0
2015	-1e-05	-1e-05	0	1e-05	1e-05	0	-1e-05	-2e-05	0
2016	-1e-05	-1e-05	0	1e-05	1e-05	0	-1e-05	-2e-05	0
2017	-1e-05	-1e-05	0	1e-05	1e-05	0	-1e-05	-2e-05	0
2018	-1e-05	-1e-05	0	1e-05	1e-05	0	-1e-05	-2e-05	0
2019	-1e-05	-1e-05	0	1e-05	1e-05	0	-1e-05	-2e-05	0
2020	-2e-05	-1e-05	-1e-05	0	-1e-05	1e-05	1e-05	-1e-05	0
2021	-2e-05	-1e-05	-1e-05	0	-1e-05	1e-05	1e-05	-1e-05	0
2022	-2e-05	-1e-05	-1e-05	0	-1e-05	1e-05	1e-05	-1e-05	0
2023	-2e-05	-1e-05	-1e-05	0	-1e-05	1e-05	1e-05	-1e-05	0
2024	-2e-05	-1e-05	-1e-05	0	-1e-05	1e-05	1e-05	-1e-05	0
2025	-2e-05	-1e-05	-1e-05	0	-1e-05	1e-05	1e-05	-1e-05	0
2026	-2e-05	-1e-05	-1e-05	0	-1e-05	1e-05	1e-05	-1e-05	0
2027	-2e-05	-1e-05	-1e-05	0	-1e-05	1e-05	1e-05	-1e-05	0
2028	-2e-05	-1e-05	-1e-05	0	-1e-05	1e-05	1e-05	-1e-05	0
2029	-2e-05	-1e-05	-1e-05	0	-1e-05	1e-05	1e-05	-1e-05	0
2030	-2e-05	-1e-05	-1e-05	0	-1e-05	1e-05	1e-05	-1e-05	0
2032	-2e-05	-1e-05	-1e-05	0	-1e-05	1e-05	1e-05	-1e-05	0
2033	-2e-05	-1e-05	-1e-05	0	-1e-05	1e-05	1e-05	-1e-05	0
2034	-2e-05	-1e-05	-1e-05	0	-1e-05	1e-05	1e-05	-1e-05	0
2035	-2e-05	-1e-05	-1e-05	0	-1e-05	1e-05	1e-05	-1e-05	0
2036	-2e-05	-1e-05	-1e-05	0	-1e-05	1e-05	1e-05	-1e-05	0
2038	-2e-05	-1e-05	-1e-05	0	-1e-05	1e-05	1e-05	-1e-05	0
2039	-2e-05	-1e-05	-1e-05	0	-1e-05	1e-05	1e-05	-1e-05	0
2040	-2e-05	-1e-05	-1e-05	0	-1e-05	1e-05	1e-05	-1e-05	0
2041	-2e-05	-1e-05	-1e-05	0	-1e-05	1e-05	1e-05	-1e-05	0
2042	-1e-05	0	0	-2e-05	-2e-05	-3e-05	-2e-05	-1e-05	0
2043	-2e-05	-3e-05	0	-2e-05	-1e-05	-1e-05	-2e-05	0	0
2044	-2e-05	-3e-05	0	-2e-05	-1e-05	-1e-05	-2e-05	0	0
2045	-2e-05	-3e-05	0	-2e-05	-1e-05	-1e-05	-2e-05	0	0
2046	-2e-05	-3e-05	0	-2e-05	-1e-05	-1e-05	-2e-05	0	0
2047	-2e-05	-3e-05	0	-2e-05	-1e-05	-1e-05	-2e-05	0	0
2048	-2e-05	-3e-05	0	-2e-05	-1e-05	-1e-05	-2e-05	0	0
2049	-2e-05	-3e-05	0	-2e-05	-1e-05	-1e-05	-2e-05	0	0
2050	-2e-05	-3e-05	0	-2e-05	-1e-05	-1e-05	-2e-05	0	0
2051	-2e-05	-3e-05	0	-2e-05	-1e-05	-1e-05	-2e-05	0	0
2052	-2e-05	-3e-05	0	-2e-05	-1e-05	-1e-05	-2e-05	0	0
2053	-2e-05	-3e-05	0	-2e-05	-1e-05	-1e-05	-2e-05	0	0
2054	-2e-05	-3e-05	0	-2e-05	-1e-05	-1e-05	-2e-05	0	0
2055	-2e-05	-3e-05	0	-2e-05	-1e-05	-1e-05	-2e-05	0	0
2056	-2e-05	-3e-05	0	-2e-05	-1e-05	-1e-05	-2e-05	0	0
2057	-2e-05	-3e-05	0	-2e-05	-1e-05	-1e-05	-2e-05	0	0
2058	-2e-05	-3e-05	0	-2e-05	-1e-05	-1e-05	-2e-05	0	0
2059	-2e-05	-3e-05	0	-2e-05	-1e-05	-1e-05	-2e-05	0	0
2060	-2e-05	-3e-05	0	-2e-05	-1e-05	-1e-05	-2e-05	0	0
2061	-2e-05	-3e-05	0	-2e-05	-1e-05	-1e-05	-2e-05	0	0
2062	-2e-05	-3e-05	0	-2e-05	-1e-05	-1e-05	-2e-05	0	0
2063	-2e-05	-3e-05	0	-2e-05	-1e-05	-1e-05	-2e-05	0	0
2064	-2e-05	-3e-05	0	-2e-05	-1e-05	-1e-05	-2e-05	0	0
2065	-1e-05	-2e-05	-2e-05	0	4e-05	3e-05	0	-2e-05	0
2066	-2e-05	-1e-05	0	-1e-05	-2e-05	-3e-05	-2e-05	-2e-05	0
2067	-2e-05	-1e-05	0	-1e-05	-2e-05	-3e-05	-2e-05	-2e-05	0
2068	-2e-05	-1e-05	0	-1e-05	-2e-05	-3e-05	-2e-05	-2e-05	0
2069	-2e-05	-1e-05	0	-1e-05	-2e-05	-3e-05	-2e-05	-2e-05	0
2070	-2e-05	-1e-05	0	-1e-05	-2e-05	-3e-05	-2e-05	-2e-05	0
2071	-2e-05	-1e-05	0	-1e-05	-2e-05	-3e-05	-2e-05	-2e-05	0
2072	-2e-05	-1e-05	0	-1e-05	-2e-05	-3e-05	-2e-05	-2e-05	0
2073	-2e-05	-1e-05	0	-1e-05	-2e-05	-3e-05	-2e-05	-2e-05	0
2074	-2e-05	-1e-05	0	-1e-05	-2e-05	-3e-05	-2e-05	-2e-05	0
2075	-2e-05	-1e-05	0	-1e-05	-2e-05	-3e-05	-2e-05	-2e-05	0
2076	-2e-05	-1e-05	0	-1e-05	-2e-05	-3e-05	-2e-05	-2e-05	0
2077	-2e-05	-1e-05	0	-1e-05	-2e-05	-3e-05	-2e-05	-2e-05	0
2078	-2e-05	-1e-05	0	-1e-05	-2e-05	-3e-05	-2e-05	-2e-05	0
2079	0	-1e-05	-1e-05	-3e-05	-4e-05	-2e-05	0	1e-05	0
2080	0	-1e-05	-1e-05	-3e-05	-4e-05	-2e-05	0	1e-05	0
2081	0	-1e-05	-1e-05	-3e-05	-4e-05	-2e-05	0	1e-05	0
2082	0	-1e-05	-1e-05	-3e-05	-4e-05	-2e-05	0	1e-05	0
2083	0	-1e-05	-1e-05	-3e-05	-4e-05	-2e-05	0	1e-05	0
2084	0	-1e-05	-1e-05	-3e-05	-4e-05	-2e-05	0	1e-05	0
2085	0	-1e-05	-1e-05	-3e-05	-4e-05	-2e-05	0	1e-05	0
2086	0	-1e-05	-1e-05	-3e-05	-4e-05	-2e-05	0	1e-05	0
2088	1e-05	1e-05	-2e-05	0	2e-05	-1e-05	0	-1e-05	0
2089	1e-05	1e-05	-2e-05	0	2e-05	-1e-05	0	-1e-05	0
2090	1e-05	1e-05	-2e-05	0	2e-05	-1e-05	0	-1e-05	0
2091	1e-05	1e-05	-2e-05	0	2e-05	-1e-05	0	-1e-05	0
2092	1e-05	1e-05	-2e-05	0	2e-05	-1e-05	0	-1e-05	0
2093	1e-05	1e-05	-2e-05	0	2e-05	-1e-05	0	-1e-05	0
2094	1e-05	1e-05	-2e-05	0	2e-05	-1e-05	0	-1e-05	0
2095	1e-05	1e-05	-2e-05	0	2e-05	-1e-05	0	-1e-05	0
2096	1e-05	1e-05	-2e-05	0	2e-05	-1e-05	0	-1e-05	0
2097	1e-05	1e-05	-2e-05	0	2e-05	-1e-05	0	-1e-05	0
2098	1e-05	1e-05	-2e-05	0	2e-05	-1e-05	0	-1e-05	0
2099	1e-05	1e-05	-2e-05	0	2e-05	-1e-05	0	-1e-05	0
2100	1e-05	1e-05	-2e-05	0	2e-05	-1e-05	0	-1e-05	0
2101	1e-05	1e-05	-2e-05	0	2e-05	-1e-05	0	-1e-05	0
2102	1e-05	-2e-05	-2e-05	1e-05	-1e-05	-3e-05	0	-1e-05	0
2103	-1e-05	-2e-05	-1e-05	-4e-05	-5e-05	-3e-05	-3e-05	-1e-05	0
2104	-1e-05	-2e-05	-1e-05	-4e-05	-5e-05	-3e-05	-3e-05	-1e-05	0
2105	-1e-05	-2e-05	-1e-05	-4e-05	-5e-05	-3e-05	-3e-05	-1e-05	0
2106	-1e-05	-2e-05	-1e-05	-4e-05	-5e-05	-3e-05	-3e-05	-1e-05	0
2107	-1e-05	-2e-05	-1e-05	-4e-05	-5e-05	-3e-05	-3e-05	-1e-05	0
2108	-1e-05	-2e-05	-1e-05	-4e-05	-5e-05	-3e-05	-3e-05	-1e-05	0
2109	-1e-05	-2e-05	-1e-05	-4e-05	-5e-05	-3e-05	-3e-05	-1e-05	0
2111	-1e-05	-2e-05	-1e-05	-4e-05	-5e-05	-3e-05	-3e-05	-1e-05	0
2112	-1e-05	-2e-05	-1e-05	-4e-05	-5e-05	-3e-05	-3e-05	-1e-05	0
2113	-1e-05	-2e-05	-1e-05	-4e-05	-5e-05	-3e-05	-3e-05	-1e-05	0
2114	-1e-05	-2e-05	-1e-05	-4e-05	-5e-05	-3e-05	-3e-05	-1e-05	0
2115	-1e-05	-2e-05	-1e-05	-4e-05	-5e-05	-3e-05	-3e-05	-1e-05	0
2116	-1e-05	-2e-05	-1e-05	-4e-05	-5e-05	-3e-05	-3e-05	-1e-05	0
2117	-1e-05	-2e-05	-1e-05	-4e-05	-5e-05	-3e-05	-3e-05	-1e-05	0
2118	-1e-05	-2e-05	-1e-05	-4e-05	-5e-05	-3e-05	-3e-05	-1e-05	0
2119	-1e-05	-2e-05	-1e-05	-4e-05	-5e-05	-3e-05	-3e-05	-1e-05	0
2120	-1e-05	-2e-05	-1e-05	-4e-05	-5e-05	-3e-05	-3e-05	-1e-05	0
2121	-1e-05	-2e-05	-1e-05	-4e-05	-5e-05	-3e-05	-3e-05	-1e-05	0
2122	-1e-05	-2e-05	-1e-05	-4e-05	-5e-05	-3e-05	-3e-05	-1e-05	0
2123	-1e-05	-2e-05	-1e-05	-4e-05	-5e-05	-3e-05	-3e-05	-1e-05	0
2124	-1e-05	-2e-05	-1e-05	-4e-05	-5e-05	-3e-05	-3e-05	-1e-05	0
2125	-1e-05	0	-1e-05	1e-05	1e-05	0	1e-05	-1e-05	0
2126	-1e-05	0	-2e-05	-2e-05	-1e-05	-2e-05	0	0	0
2127	-1e-05	0	-2e-05	-2e-05	-1e-05	-2e-05	0	0	0
2128	-1e-05	0	-2e-05	-2e-05	-1e-05	-2e-05	0	0	0
2129	-1e-05	0	-2e-05	-2e-05	-1e-05	-2e-05	0	0	0
2130	-1e-05	0	-2e-05	-2e-05	-1e-05	-2e-05	0	0	0
2131	-1e-05	0	-2e-05	-2e-05	-1e-05	-2e-05	0	0	0
2132	-1e-05	0	-2e-05	-2e-05	-1e-05	-2e-05	0	0	0
2133	-1e-05	0	-2e-05	-2e-05	-1e-05	-2e-05	0	0	0
2134	-1e-05	0	-2e-05	-2e-05	-1e-05	-2e-05	0	0	0
2135	-1e-05	0	-2e-05	-2e-05	-1e-05	-2e-05	0	0	0
2136	-1e-05	0	-2e-05	-2e-05	-1e-05	-2e-05	0	0	0
2138	-1e-05	0	-2e-05	-2e-05	-1e-05	-2e-05	0	0	0
2139	0	-1e-05	-2e-05	1e-05	-2e-05	0	-1e-05	-1e-05	0
2140	0	-1e-05	-2e-05	1e-05	-2e-05	0	-1e-05	-1e-05	0
2141	0	-1e-05	-2e-05	1e-05	-2e-05	0	-1e-05	-1e-05	0
2142	0	-1e-05	-2e-05	1e-05	-2e-05	0	-1e-05	-1e-05	0
2143	0	-1e-05	-2e-05	1e-05	-2e-05	0	-1e-05	-1e-05	0
2144	0	-1e-05	-2e-05	1e-05	-2e-05	0	-1e-05	-1e-05	0
2145	0	-1e-05	-2e-05	1e-05	-2e-05	0	-1e-05	-1e-05	0
2146	0	-1e-05	-2e-05	1e-05	-2e-05	0	-1e-05	-1e-05	0
2147	0	0	-2e-05	-2e-05	-5e-05	-3e-05	-3e-05	0	0
2148	0	0	-2e-05	-2e-05	-5e-05	-3e-05	-3e-05	0	0
2149	0	0	-2e-05	-2e-05	-5e-05	-3e-05	-3e-05	0	0
2150	0	0	-2e-05	-2e-05	-5e-05	-3e-05	-3e-05	0	0
2151	0	0	-2e-05	-2e-05	-5e-05	-3e-05	-3e-05	0	0
2152	0	0	-2e-05	-2e-05	-5e-05	-3e-05	-3e-05	0	0
2153	0	0	-2e-05	-2e-05	-5e-05	-3e-05	-3e-05	0	0
2154	0	0	-2e-05	-2e-05	-5e-05	-3e-05	-3e-05	0	0
2155	0	0	-2e-05	-2e-05	-5e-05	-3e-05	-3e-05	0	0
2156	0	0	-2e-05	-2e-05	-5e-05	-3e-05	-3e-05	0	0
2157	0	0	-2e-05	-2e-05	-5e-05	-3e-05	-3e-05	0	0
2158	0	0	-2e-05	-2e-05	-5e-05	-3e-05	-3e-05	0	0
2159	0	0	-2e-05	-2e-05	-5e-05	-3e-05	-3e-05	0	0
2160	0	0	-2e-05	-2e-05	-5e-05	-3e-05	-3e-05	0	0
2161	0	0	-2e-05	-2e-05	-5e-05	-3e-05	-3e-05	0	0
2162	0	1e-05	1e-05	-1e-05	-1e-05	0	-3e-05	-2e-05	0
2163	-1e-05	-2e-05	-3e-05	-2e-05	0	1e-05	0	-1e-05	0
2164	-1e-05	-2e-05	-3e-05	-2e-05	0	1e-05	0	-1e-05	0
2165	-1e-05	-2e-05	-3e-05	-2e-05	0	1e-05	0	-1e-05	0
2166	-1e-05	-2e-05	-3e-05	-2e-05	0	1e-05	0	-1e-05	0
2167	-1e-05	-2e-05	-3e-05	-2e-05	0	1e-05	0	-1e-05	0
2168	-1e-05	-2e-05	-3e-05	-2e-05	0	1e-05	0	-1e-05	0
2169	-1e-05	-2e-05	-3e-05	-2e-05	0	1e-05	0	-1e-05	0
2170	-1e-05	-2e-05	-3e-05	-2e-05	0	1e-05	0	-1e-05	0
2171	-1e-05	-2e-05	-3e-05	-2e-05	0	1e-05	0	-1e-05	0
2172	-1e-05	-2e-05	-3e-05	-2e-05	0	1e-05	0	-1e-05	0
2173	-1e-05	-2e-05	-3e-05	-2e-05	0	1e-05	0	-1e-05	0
2174	-1e-05	-2e-05	-3e-05	-2e-05	0	1e-05	0	-1e-05	0
2175	-1e-05	-2e-05	-3e-05	-2e-05	0	1e-05	0	-1e-05	0
2176	-1e-05	-2e-05	-3e-05	-2e-05	0	1e-05	0	-1e-05	0
2177	-1e-05	-2e-05	-3e-05	-2e-05	0	1e-05	0	-1e-05	0
2178	-1e-05	-2e-05	-3e-05	-2e-05	0	1e-05	0	-1e-05	0
2179	-1e-05	-2e-05	-3e-05	-2e-05	0	1e-05	0	-1e-05	0
2180	-1e-05	-2e-05	-3e-05	-2e-05	0	1e-05	0	-1e-05	0
2181	-1e-05	-2e-05	-3e-05	-2e-05	0	1e-05	0	-1e-05	0
2182	-1e-05	-2e-05	-3e-05	-2e-05	0	1e-05	0	-1e-05	0
2183	-1e-05	-2e-05	-3e-05	-2e-05	0	1e-05	0	-1e-05	0
2184	-1e-05	-2e-05	-3e-05	-2e-05	0	1e-05	0	-1e-05	0
2185	-1e-05	-2e-05	-3e-05	-2e-05	0	1e-05	0	-1e-05	0
2186	0	-1e-05	-1e-05	-2e-05	-2e-05	-2e-05	-1e-05	-2e-05	0
2188	0	-1e-05	-1e-05	-2e-05	-2e-05	-2e-05	-1e-05	-2e-05	0
2189	0	-1e-05	-1e-05	-2e-05	-2e-05	-2e-05	-1e-05	-2e-05	0
2190	0	-1e-05	-1e-05	-2e-05	-2e-05	-2e-05	-1e-05	-2e-05	0
2191	0	-1e-05	-1e-05	-2e-05	-2e-05	-2e-05	-1e-05	-2e-05	0
2192	0	-1e-05	-1e-05	-2e-05	-2e-05	-2e-05	-1e-05	-2e-05	0
2193	0	-1e-05	-1e-05	-2e-05	-2e-05	-2e-05	-1e-05	-2e-05	0
2194	0	-1e-05	-1e-05	-2e-05	-2e-05	-2e-05	-1e-05	-2e-05	0
2195	0	-1e-05	-1e-05	-2e-05	-2e-05	-2e-05	-1e-05	-2e-05	0
2196	0	-1e-05	-1e-05	-2e-05	-2e-05	-2e-05	-1e-05	-2e-05	0
2197	0	-1e-05	-1e-05	-2e-05	-2e-05	-2e-05	-1e-05	-2e-05	0
2198	0	-1e-05	-1e-05	-2e-05	-2e-05	-2e-05	-1e-05	-2e-05	0
2199	0	-3e-05	-2e-05	-2e-05	-1e-05	1e-05	0	-2e-05	0
2200	0	-3e-05	-2e-05	-2e-05	-1e-05	1e-05	0	-2e-05	0
2201	0	-3e-05	-2e-05	-2e-05	-1e-05	1e-05	0	-2e-05	0
2202	0	-3e-05	-2e-05	-2e-05	-1e-05	1e-05	0	-2e-05	0
2203	0	-3e-05	-2e-05	-2e-05	-1e-05	1e-05	0	-2e-05	0
2204	0	-3e-05	-2e-05	-2e-05	-1e-05	1e-05	0	-2e-05	0
2205	0	-3e-05	-2e-05	-2e-05	-1e-05	1e-05	0	-2e-05	0
2206	0	-3e-05	-2e-05	-2e-05	-1e-05	1e-05	0	-2e-05	0
2207	0	-1e-05	-2e-05	-2e-05	-3e-05	-3e-05	-1e-05	-2e-05	0
2208	0	-1e-05	-2e-05	-2e-05	-3e-05	-3e-05	-1e-05	-2e-05	0
2209	0	-1e-05	-2e-05	-2e-05	-3e-05	-3e-05	-1e-05	-2e-05	0
2210	0	-1e-05	-2e-05	-2e-05	-3e-05	-3e-05	-1e-05	-2e-05	0
2211	0	-1e-05	-2e-05	-2e-05	-3e-05	-3e-05	-1e-05	-2e-05	0
2212	0	-1e-05	-2e-05	-2e-05	-3e-05	-3e-05	-1e-05	-2e-05	0
2213	0	-1e-05	-2e-05	-2e-05	-3e-05	-3e-05	-1e-05	-2e-05	0
2214	0	-1e-05	-2e-05	-2e-05	-3e-05	-3e-05	-1e-05	-2e-05	0
2215	0	-1e-05	-2e-05	-2e-05	-3e-05	-3e-05	-1e-05	-2e-05	0
2216	0	-1e-05	-2e-05	-2e-05	-3e-05	-3e-05	-1e-05	-2e-05	0
2217	0	-1e-05	-2e-05	-2e-05	-3e-05	-3e-05	-1e-05	-2e-05	0
2218	0	-1e-05	-2e-05	-2e-05	-3e-05	-3e-05	-1e-05	-2e-05	0
2219	0	-1e-05	-2e-05	-2e-05	-3e-05	-3e-05	-1e-05	-2e-05	0
2220	0	-1e-05	-2e-05	-2e-05	-3e-05	-3e-05	-1e-05	-2e-05	0
2221	0	-1e-05	-2e-05	-2e-05	-3e-05	-3e-05	-1e-05	-2e-05	0
2222	0	-2e-05	-1e-05	-1e-05	-1e-05	-3e-05	-2e-05	-2e-05	0
2223	-2e-05	-2e-05	-1e-05	0	1e-05	0	0	-2e-05	0
2224	-2e-05	-2e-05	-1e-05	0	1e-05	0	0	-2e-05	0
2225	-2e-05	-2e-05	-1e-05	0	1e-05	0	0	-2e-05	0
2226	-2e-05	-2e-05	-1e-05	0	1e-05	0	0	-2e-05	0
2227	-2e-05	-2e-05	-1e-05	0	1e-05	0	0	-2e-05	0
2228	-2e-05	-2e-05	-1e-05	0	1e-05	0	0	-2e-05	0
2229	-2e-05	-2e-05	-1e-05	0	1e-05	0	0	-2e-05	0
2230	-2e-05	-2e-05	-1e-05	0	1e-05	0	0	-2e-05	0
2231	-2e-05	-2e-05	-1e-05	0	1e-05	0	0	-2e-05	0
2232	-2e-05	-2e-05	-1e-05	0	1e-05	0	0	-2e-05	0
2233	-2e-05	-2e-05	-1e-05	0	1e-05	0	0	-2e-05	0
2234	-2e-05	-2e-05	-1e-05	0	1e-05	0	0	-2e-05	0
2235	-2e-05	-2e-05	-1e-05	0	1e-05	0	0	-2e-05	0
2236	-2e-05	-2e-05	-1e-05	0	1e-05	0	0	-2e-05	0
2238	-2e-05	-2e-05	-1e-05	0	1e-05	0	0	-2e-05	0
2239	-2e-05	-2e-05	-1e-05	0	1e-05	0	0	-2e-05	0
2240	-2e-05	-2e-05	-1e-05	0	1e-05	0	0	-2e-05	0
2241	-2e-05	-2e-05	-1e-05	0	1e-05	0	0	-2e-05	0
2242	-2e-05	-2e-05	-1e-05	0	1e-05	0	0	-2e-05	0
2243	-2e-05	-2e-05	-1e-05	0	1e-05	0	0	-2e-05	0
2244	-2e-05	-2e-05	-1e-05	0	1e-05	0	0	-2e-05	0
2245	-1e-05	-2e-05	-2e-05	-1e-05	-1e-05	-2e-05	-2e-05	0	0
2246	-1e-05	-1e-05	-2e-05	-2e-05	-3e-05	-3e-05	0	-1e-05	0
2247	-1e-05	-1e-05	-2e-05	-2e-05	-3e-05	-3e-05	0	-1e-05	0
2248	-1e-05	-1e-05	-2e-05	-2e-05	-3e-05	-3e-05	0	-1e-05	0
2249	-1e-05	-1e-05	-2e-05	-2e-05	-3e-05	-3e-05	0	-1e-05	0
2250	-1e-05	-1e-05	-2e-05	-2e-05	-3e-05	-3e-05	0	-1e-05	0
2251	-1e-05	-1e-05	-2e-05	-2e-05	-3e-05	-3e-05	0	-1e-05	0
2252	-1e-05	-1e-05	-2e-05	-2e-05	-3e-05	-3e-05	0	-1e-05	0
2253	-1e-05	-1e-05	-2e-05	-2e-05	-3e-05	-3e-05	0	-1e-05	0
2254	-1e-05	-1e-05	-2e-05	-2e-05	-3e-05	-3e-05	0	-1e-05	0
2255	-1e-05	-1e-05	-2e-05	-2e-05	-3e-05	-3e-05	0	-1e-05	0
2256	-1e-05	-1e-05	-2e-05	-2e-05	-3e-05	-3e-05	0	-1e-05	0
2257	-1e-05	-1e-05	-2e-05	-2e-05	-3e-05	-3e-05	0	-1e-05	0
2258	-1e-05	-1e-05	-2e-05	-2e-05	-3e-05	-3e-05	0	-1e-05	0
2259	-1e-05	-1e-05	-1e-05	0	0	2e-05	-2e-05	-2e-05	0
2260	-1e-05	-1e-05	-1e-05	0	0	2e-05	-2e-05	-2e-05	0
2261	-1e-05	-1e-05	-1e-05	0	0	2e-05	-2e-05	-2e-05	0
2262	-1e-05	-1e-05	-1e-05	0	0	2e-05	-2e-05	-2e-05	0
2263	-1e-05	-1e-05	-1e-05	0	0	2e-05	-2e-05	-2e-05	0
2264	-1e-05	-1e-05	-1e-05	0	0	2e-05	-2e-05	-2e-05	0
2265	-1e-05	-1e-05	-1e-05	0	0	2e-05	-2e-05	-2e-05	0
2266	-1e-05	-1e-05	-1e-05	0	0	2e-05	-2e-05	-2e-05	0
2267	-1e-05	-2e-05	-2e-05	1e-05	-2e-05	0	-2e-05	1e-05	0
2268	-1e-05	-2e-05	-2e-05	1e-05	-2e-05	0	-2e-05	1e-05	0
2269	-1e-05	-2e-05	-2e-05	1e-05	-2e-05	0	-2e-05	1e-05	0
2270	-1e-05	-2e-05	-2e-05	1e-05	-2e-05	0	-2e-05	1e-05	0
